Wavelength (nm),Reflectance
350.0,0.14965991561036907
351.0,0.15034855586039486
352.0,0.1507632490512873
353.0,0.1508670399603573
354.0,0.15104961221374058
355.0,0.1518557217190388
356.0,0.15304011120147273
357.0,0.15370726761859851
358.0,0.1544431289062634
359.0,0.15506602408489376
360.0,0.15541603441434804
361.0,0.15551794449608022
362.0,0.1562472392638757
363.0,0.15725906234868117
364.0,0.15806271064129881
365.0,0.15854971906382004
366.0,0.15902561136863097
367.0,0.15956207895470398
368.0,0.16016798577446317
369.0,0.1609887671807149
370.0,0.16196327967720534
371.0,0.16297448973452522
372.0,0.1639085791846802
373.0,0.16496905139519855
374.0,0.16602759011860024
375.0,0.1670011081680637
376.0,0.16790467798351724
377.0,0.1686750511821615
378.0,0.16942396917994618
379.0,0.17030039534774583
380.0,0.17146168262494552
381.0,0.17256867613401594
382.0,0.17385085138705894
383.0,0.17544314825089782
384.0,0.17653177211536697
385.0,0.1776718031149324
386.0,0.17867088216343657
387.0,0.17913359774349866
388.0,0.17982957491863052
389.0,0.1808629047686517
390.0,0.18209318070286895
391.0,0.18322092491391495
392.0,0.1841597105502927
393.0,0.1853372791529264
394.0,0.1866876631223745
395.0,0.18726222816351995
396.0,0.18820796616894253
397.0,0.18913467771963924
398.0,0.1896237755231441
399.0,0.19011022593454238
400.0,0.1904612991992871
401.0,0.19095295036029558
402.0,0.19186626163734688
403.0,0.1926712443022414
404.0,0.193525992828308
405.0,0.19443793031909756
406.0,0.19525731168928054
407.0,0.19601318480638677
408.0,0.1968104883947191
409.0,0.1976758817280917
410.0,0.19849041477753834
411.0,0.1992501891112073
412.0,0.19993187638407345
413.0,0.20056882094821807
414.0,0.20135984677487087
415.0,0.20223257852597243
416.0,0.2030599749703364
417.0,0.20374531742587923
418.0,0.20459759522866944
419.0,0.20538485405978518
420.0,0.20608994833903108
421.0,0.20696346783247208
422.0,0.2077600016945161
423.0,0.20856878057319644
424.0,0.20945948621279356
425.0,0.21030951127347564
426.0,0.21116838395379503
427.0,0.21208912184698742
428.0,0.21310066759701785
429.0,0.21411280661466772
430.0,0.21516229289078834
431.0,0.21614799654246208
432.0,0.2169044318071134
433.0,0.21764677370381985
434.0,0.21834909210135744
435.0,0.2190472017656141
436.0,0.21990673706169958
437.0,0.22085866033655416
438.0,0.2218188847763391
439.0,0.22271460811315397
440.0,0.22353298542933467
441.0,0.22428039478881406
442.0,0.2250436891716386
443.0,0.22590963118114052
444.0,0.22666007664984555
445.0,0.2274849047679067
446.0,0.22838831749982805
447.0,0.22913381161167012
448.0,0.22984430321439872
449.0,0.23054963653801028
450.0,0.23127522826410854
451.0,0.23209045485703875
452.0,0.2329055430641291
453.0,0.23368151784062693
454.0,0.23440825373406002
455.0,0.23508834989339658
456.0,0.23579153281823792
457.0,0.23649219206608416
458.0,0.2370811611415098
459.0,0.2376547449249532
460.0,0.23826106703769293
461.0,0.23889171576506388
462.0,0.23943053232445716
463.0,0.24003024416805127
464.0,0.24064742761825475
465.0,0.2411986614852667
466.0,0.2417588340432335
467.0,0.24232067350299097
468.0,0.24286695415846787
469.0,0.24337956508892936
470.0,0.24388880818448133
471.0,0.24436944211363087
472.0,0.24482473439407393
473.0,0.24531891402706707
474.0,0.24583186185979855
475.0,0.24638468744770978
476.0,0.2469791713637899
477.0,0.24749379775727984
478.0,0.24801968170385058
479.0,0.2485497703727226
480.0,0.24901844321984265
481.0,0.24952318573249627
482.0,0.25008088160500647
483.0,0.2506883580720949
484.0,0.25131927059877
485.0,0.25205668854112684
486.0,0.2528000659819846
487.0,0.2534102828264593
488.0,0.2538327069186591
489.0,0.25431058601233175
490.0,0.2549021648407637
491.0,0.25554165615095414
492.0,0.2562621319196358
493.0,0.25688624758361595
494.0,0.2573777632444852
495.0,0.2579416028271919
496.0,0.2585611896455109
497.0,0.2592193869497081
498.0,0.25990172699520125
499.0,0.2606267926613802
500.0,0.2612853260115636
501.0,0.2618811785309486
502.0,0.2624918049982933
503.0,0.2630918229663299
504.0,0.26366538360173486
505.0,0.26423884899370803
506.0,0.26490100944203665
507.0,0.2655477481002278
508.0,0.2661747830655638
509.0,0.26681076380708074
510.0,0.26749274172736115
511.0,0.26817915308890106
512.0,0.2688572692956132
513.0,0.26953500758807575
514.0,0.27018894406944033
515.0,0.27088860205262444
516.0,0.271667114707323
517.0,0.2724819463533236
518.0,0.2731291413850561
519.0,0.2736253237500492
520.0,0.2740998581936464
521.0,0.2747890227099076
522.0,0.2755153188692137
523.0,0.2762077793868262
524.0,0.27687717976762777
525.0,0.2776031941148701
526.0,0.27839475471603403
527.0,0.27918364803285917
528.0,0.27979640426769
529.0,0.28038794834813624
530.0,0.2810826206054835
531.0,0.2819467664653356
532.0,0.2828368266620191
533.0,0.2836730794024182
534.0,0.2844410404811883
535.0,0.28519169633331715
536.0,0.28602679097487876
537.0,0.28686303968667903
538.0,0.28766139157843035
539.0,0.28849518815294967
540.0,0.28934959092433354
541.0,0.2901658304375079
542.0,0.2908990324758091
543.0,0.29163753153025296
544.0,0.29235153782057155
545.0,0.2930447494406706
546.0,0.2937457214805989
547.0,0.2944456328693798
548.0,0.29517395023122694
549.0,0.29595886196737037
550.0,0.2968104293320479
551.0,0.2977612793374643
552.0,0.2988466926335994
553.0,0.30006550824680484
554.0,0.30123883994465633
555.0,0.3025195034780902
556.0,0.3039053754667458
557.0,0.3052037368391182
558.0,0.30637295723129526
559.0,0.30745073021604336
560.0,0.3084889241938383
561.0,0.30952388042558365
562.0,0.3105381268796661
563.0,0.31151318390889216
564.0,0.31243721305701194
565.0,0.3133738546344961
566.0,0.3141676865154433
567.0,0.3148025510457519
568.0,0.3154658913924737
569.0,0.3163104433545493
570.0,0.317373555774586
571.0,0.3186166963352351
572.0,0.31996688823980274
573.0,0.32120270766766057
574.0,0.3222585323586936
575.0,0.32316698410584566
576.0,0.32387361246772517
577.0,0.3245144386813991
578.0,0.3251899702824596
579.0,0.32591188628259987
580.0,0.3266962679577162
581.0,0.3275169561606084
582.0,0.32833644671302065
583.0,0.32909153275643194
584.0,0.33007439832770175
585.0,0.33128762133646983
586.0,0.3324951321121117
587.0,0.3334691129030368
588.0,0.33432490961034034
589.0,0.3350806848023623
590.0,0.3354264211515294
591.0,0.3357349397208519
592.0,0.3361063445956384
593.0,0.3365405333737428
594.0,0.3370035899015364
595.0,0.3374356082227665
596.0,0.33783085179132755
597.0,0.33824197845413856
598.0,0.3387462834720898
599.0,0.3393674948643244
600.0,0.34008375490253356
601.0,0.3408243256827329
602.0,0.3414492929843564
603.0,0.34194724356190803
604.0,0.3423773179744857
605.0,0.3428060839174696
606.0,0.34317401700294237
607.0,0.3434885099806888
608.0,0.3438325857617573
609.0,0.34418361534144243
610.0,0.3444602280329124
611.0,0.3446661806006916
612.0,0.3450771359019313
613.0,0.34545143478209667
614.0,0.34571089607960626
615.0,0.3458925700727974
616.0,0.3462525336377315
617.0,0.3465405197473531
618.0,0.34670700462535664
619.0,0.34700796260391353
620.0,0.3472764959202899
621.0,0.34753119466159016
622.0,0.3478072236152399
623.0,0.3480601050562561
624.0,0.34831334468402547
625.0,0.3485466021073802
626.0,0.3487283932887533
627.0,0.34895509766696176
628.0,0.3492246510074306
629.0,0.34949087272833135
630.0,0.3496600729499271
631.0,0.34986769402126705
632.0,0.3500510269789433
633.0,0.35015368315204565
634.0,0.3503476282710018
635.0,0.3505783185703526
636.0,0.35081648388244585
637.0,0.3510463151340854
638.0,0.3512022004450029
639.0,0.35138340968705256
640.0,0.3516304175507568
641.0,0.3518384978617754
642.0,0.35200861726660904
643.0,0.35216218549426204
644.0,0.352335704190067
645.0,0.3525734690405538
646.0,0.35282420259579084
647.0,0.35303497433215125
648.0,0.35316530888754555
649.0,0.35330674922153826
650.0,0.35343648196452176
651.0,0.3535690951804382
652.0,0.3538454383850601
653.0,0.3540403252588776
654.0,0.35425613954235513
655.0,0.35464351333821265
656.0,0.35493431448364104
657.0,0.35494319695617477
658.0,0.3548612146576038
659.0,0.3551367765444627
660.0,0.3553397261537236
661.0,0.355547010160322
662.0,0.3558143000797371
663.0,0.35599409615640903
664.0,0.3561261311070132
665.0,0.3562727204457157
666.0,0.3564865381338723
667.0,0.35669610803605994
668.0,0.3568275123222712
669.0,0.3569501171855242
670.0,0.3572529269313493
671.0,0.3574168310211637
672.0,0.3575094370207601
673.0,0.3576300897747578
674.0,0.35776196709228114
675.0,0.3579550640565965
676.0,0.3581756162902372
677.0,0.35834954549672016
678.0,0.3583958043830221
679.0,0.35851672589753014
680.0,0.358742110773806
681.0,0.3589087234948775
682.0,0.3590663044695947
683.0,0.3592204996826516
684.0,0.3593438952782617
685.0,0.35930338914540744
686.0,0.3595577039401802
687.0,0.35991632920104766
688.0,0.35985590422766534
689.0,0.35991679887137107
690.0,0.36003565300327633
691.0,0.3601460217061046
692.0,0.3602212832380137
693.0,0.36030217453364327
694.0,0.36039775632913007
695.0,0.36049940150342097
696.0,0.36056883917033694
697.0,0.36069871660107944
698.0,0.36085618263050007
699.0,0.3609628996598387
700.0,0.3610031841489149
701.0,0.3610552782407012
702.0,0.3611503429686039
703.0,0.3612596981153442
704.0,0.3613525081543057
705.0,0.3614243824190556
706.0,0.3614803910592952
707.0,0.36152638980541
708.0,0.36159094521116886
709.0,0.3616688109977622
710.0,0.36174613817556256
711.0,0.36185610474291546
712.0,0.36191532876706
713.0,0.36196619810881286
714.0,0.36215373488432623
715.0,0.3621780223112057
716.0,0.36219991165180915
717.0,0.36232840889346624
718.0,0.36231481297066576
719.0,0.3623262200993115
720.0,0.3623964996138669
721.0,0.36249108874439584
722.0,0.36258367490050614
723.0,0.3626912029563362
724.0,0.3627738244089814
725.0,0.36274435741958316
726.0,0.36280708034906534
727.0,0.3628963041491896
728.0,0.3629795927610768
729.0,0.36316404787316936
730.0,0.36325587740596627
731.0,0.3632464025991449
732.0,0.3632143027304694
733.0,0.36330930022369584
734.0,0.3633578892335805
735.0,0.3633561701931958
736.0,0.36339934858486783
737.0,0.363414870761903
738.0,0.3634960044614441
739.0,0.3636148267437278
740.0,0.36354312873014366
741.0,0.3635842416944948
742.0,0.3636738331041158
743.0,0.363713389961754
744.0,0.3638124982772401
745.0,0.36391466898667435
746.0,0.3639774413884757
747.0,0.3639851620647512
748.0,0.3640336654168144
749.0,0.36413564570135265
750.0,0.36427709938922614
751.0,0.36441988565945854
752.0,0.3644761737120517
753.0,0.3645400316616678
754.0,0.3646669829557618
755.0,0.3647305470964013
756.0,0.36484338078508444
757.0,0.36484756465970236
758.0,0.3646036715884931
759.0,0.3646108843655098
760.0,0.3649116185247523
761.0,0.3653280876435906
762.0,0.36492081005644605
763.0,0.36559919322205997
764.0,0.3661673080995534
765.0,0.366144861497898
766.0,0.36619129430240355
767.0,0.3659762355394315
768.0,0.36571623165245437
769.0,0.3655837888110471
770.0,0.36560304752684003
771.0,0.3656229269545659
772.0,0.36560150771280164
773.0,0.3655644413111954
774.0,0.3656029914429789
775.0,0.36560867786102036
776.0,0.36557590590244526
777.0,0.3656114289569156
778.0,0.36565113353560863
779.0,0.36568519559524865
780.0,0.36569427922614833
781.0,0.3656218026117527
782.0,0.3655424907609832
783.0,0.36555733316461075
784.0,0.3656876448827102
785.0,0.3656394705264581
786.0,0.3655966328216519
787.0,0.36562675747493395
788.0,0.3657036130194769
789.0,0.3657112859411956
790.0,0.36565812350553617
791.0,0.3655695942520079
792.0,0.3654771437526214
793.0,0.36548063883465787
794.0,0.36549036629830967
795.0,0.3654394850517456
796.0,0.36539106387014153
797.0,0.3653170843126347
798.0,0.36524816519159325
799.0,0.36521874620014017
800.0,0.3652250139454512
801.0,0.36514400740118
802.0,0.3650837788911724
803.0,0.3652085273034358
804.0,0.3650928425663203
805.0,0.3648676521348672
806.0,0.3646984284980498
807.0,0.364707786989424
808.0,0.36475617733067195
809.0,0.36476124462174975
810.0,0.36470593443987587
811.0,0.3646746493293596
812.0,0.3645978690867177
813.0,0.3644875849097907
814.0,0.3644064043705285
815.0,0.36451586468277203
816.0,0.3645705040214343
817.0,0.36451584094646217
818.0,0.3644205308427159
819.0,0.364360810038564
820.0,0.3641145571106388
821.0,0.36386664088982623
822.0,0.36403661667780973
823.0,0.3641826923042263
824.0,0.3639682915251046
825.0,0.36351622439063086
826.0,0.3633719373499085
827.0,0.3633952647639316
828.0,0.3633735391614547
829.0,0.3631822526496442
830.0,0.36295550877714566
831.0,0.362845376520801
832.0,0.3628225676902623
833.0,0.3628011468981077
834.0,0.3627468980901819
835.0,0.362685527929589
836.0,0.362559424999545
837.0,0.3623113595365967
838.0,0.36207839039793116
839.0,0.3620221298944189
840.0,0.3619870211929917
841.0,0.361644441534131
842.0,0.3614762118431283
843.0,0.3613667394543312
844.0,0.3612374366579474
845.0,0.36114427416007
846.0,0.3610562075184092
847.0,0.36093406969301817
848.0,0.36081098305296133
849.0,0.36086244886362934
850.0,0.36080926303712346
851.0,0.36061178483041534
852.0,0.36040259996952084
853.0,0.36059840060712345
854.0,0.36079471394766466
855.0,0.3606891369681945
856.0,0.36024094324234796
857.0,0.36005999550572265
858.0,0.3600514504068541
859.0,0.3600351598040922
860.0,0.35985515739895646
861.0,0.359783393289867
862.0,0.35965607756584217
863.0,0.3594584796796618
864.0,0.3593389896549427
865.0,0.3595513389738741
866.0,0.3596999203566219
867.0,0.3595503781772954
868.0,0.3592317014932266
869.0,0.3591158515148215
870.0,0.3590640886509504
871.0,0.3589787541357265
872.0,0.35896697821449824
873.0,0.3589179029728923
874.0,0.35881256081703455
875.0,0.3587009482066297
876.0,0.35873250450683203
877.0,0.3585925138403513
878.0,0.3584883576544606
879.0,0.3586158265701348
880.0,0.3586697758700856
881.0,0.3586461980681484
882.0,0.3584601465972689
883.0,0.35814051116872225
884.0,0.3581735338431244
885.0,0.35835063699663955
886.0,0.3585379647295546
887.0,0.35864226699754
888.0,0.35855800969449214
889.0,0.35852625999353777
890.0,0.35858385202600124
891.0,0.3586344169551023
892.0,0.35871777905867946
893.0,0.35880998458951885
894.0,0.3588744245601718
895.0,0.358893260798307
896.0,0.35908822962861875
897.0,0.35909326559158206
898.0,0.3589919848326205
899.0,0.3593429586601027
900.0,0.35955730777143946
901.0,0.3594913374682526
902.0,0.3592133749827874
903.0,0.3589295965084474
904.0,0.35874817592315705
905.0,0.35870910619676455
906.0,0.3588721800512913
907.0,0.3593294791308938
908.0,0.35994038543045753
909.0,0.360066765229982
910.0,0.3595793987606645
911.0,0.359296539885895
912.0,0.35948715596845604
913.0,0.3596788063511226
914.0,0.35965622191555946
915.0,0.35995808462022905
916.0,0.36025724517599295
917.0,0.36026593387546935
918.0,0.36001874599159756
919.0,0.36006067282544696
920.0,0.3600817357456818
921.0,0.36017585766348487
922.0,0.3603736340909086
923.0,0.36039897664288695
924.0,0.3604448724355326
925.0,0.3603824129761063
926.0,0.3601088510687211
927.0,0.3597644077699936
928.0,0.3601250176337216
929.0,0.3606432860785242
930.0,0.360607408314435
931.0,0.36049825004904984
932.0,0.36009243515790945
933.0,0.360011933567914
934.0,0.36067218452657607
935.0,0.36067912526328594
936.0,0.36023654697927343
937.0,0.3603576384555314
938.0,0.36112780998293476
939.0,0.36058140512818987
940.0,0.3598799473482936
941.0,0.3596560257640096
942.0,0.36031919095892173
943.0,0.3621310085526862
944.0,0.3633249171762019
945.0,0.363261681428425
946.0,0.36210629432358205
947.0,0.3607170849342367
948.0,0.36068236342802923
949.0,0.36159198430099926
950.0,0.36231017559990075
951.0,0.3616119281317912
952.0,0.3616664456572802
953.0,0.36205020172611446
954.0,0.36198916746655235
955.0,0.36138565342634094
956.0,0.36212872452645956
957.0,0.3628576095137699
958.0,0.3628033431092235
959.0,0.3633061974471843
960.0,0.3627786531968298
961.0,0.36248654980917616
962.0,0.36303633386118883
963.0,0.3634035216076705
964.0,0.36379085720409365
965.0,0.3638820588984938
966.0,0.3635535907636566
967.0,0.363006530265571
968.0,0.3625250330110147
969.0,0.3629078842247177
970.0,0.3638646558854093
971.0,0.3641155204796831
972.0,0.36414828243279934
973.0,0.3639622634908103
974.0,0.36425868596256517
975.0,0.36589592424485845
976.0,0.36623528529089433
977.0,0.365912230170514
978.0,0.3656875436672476
979.0,0.3658988766963577
980.0,0.36571119747035874
981.0,0.36565862721350895
982.0,0.3657374121301966
983.0,0.3656822352638724
984.0,0.3656423164256362
985.0,0.3659734714347995
986.0,0.36612961752389583
987.0,0.3656190605441906
988.0,0.3654395658017935
989.0,0.3655648971197117
990.0,0.36568590653505667
991.0,0.365529879821953
992.0,0.36521517585854596
993.0,0.3652208498503429
994.0,0.36520197979066815
995.0,0.3652105225958375
996.0,0.3662707405541086
997.0,0.36648065017150305
998.0,0.3660169962830267
999.0,0.36559881446844666
1000.0,0.3658684332050851
1001.0,0.37548143826563296
1002.0,0.37599849769104254
1003.0,0.37613563357240976
1004.0,0.3764596093102381
1005.0,0.37635059462482334
1006.0,0.3756301174648517
1007.0,0.37541131514992265
1008.0,0.37510721420726084
1009.0,0.375032849032528
1010.0,0.3756026366330664
1011.0,0.3759506777580842
1012.0,0.3760935163345232
1013.0,0.3762507197097044
1014.0,0.37606156058443874
1015.0,0.3759722128929789
1016.0,0.37590507448416677
1017.0,0.37579843378027245
1018.0,0.3758850447342076
1019.0,0.3761603643970633
1020.0,0.37613823032833343
1021.0,0.37614896982298923
1022.0,0.37595594304632995
1023.0,0.37559607217623464
1024.0,0.37573824304047626
1025.0,0.3757769938041245
1026.0,0.37572262149998065
1027.0,0.3759143110895666
1028.0,0.37558965842781183
1029.0,0.3750986613489121
1030.0,0.3751105249045941
1031.0,0.37498717553886085
1032.0,0.3747343028859586
1033.0,0.3745100285369792
1034.0,0.37432903335137596
1035.0,0.3741896208475638
1036.0,0.37390635751874907
1037.0,0.37390340207373823
1038.0,0.37430763336203954
1039.0,0.3745254292654171
1040.0,0.37434223137431244
1041.0,0.3742840726441285
1042.0,0.3740257781350247
1043.0,0.3737518413226397
1044.0,0.37391084961035304
1045.0,0.3740671933059665
1046.0,0.37411711774464923
1047.0,0.37412825904741387
1048.0,0.37417944140534415
1049.0,0.37414406011581575
1050.0,0.3742593256504227
1051.0,0.3744913888499955
1052.0,0.3747239633867671
1053.0,0.3749235747049907
1054.0,0.37471773150949705
1055.0,0.37433392211021954
1056.0,0.3739624904336023
1057.0,0.3737220775202774
1058.0,0.37393113703797937
1059.0,0.37403785728858624
1060.0,0.37431920064483654
1061.0,0.3747044777025215
1062.0,0.37454610480835937
1063.0,0.3745599697224595
1064.0,0.3746923049020576
1065.0,0.374738373701617
1066.0,0.37429641276568787
1067.0,0.3740795167439796
1068.0,0.37407896754378245
1069.0,0.3740613285562982
1070.0,0.37419639262826715
1071.0,0.37433685001092937
1072.0,0.3742277798549877
1073.0,0.37385333438559215
1074.0,0.37375833383272716
1075.0,0.3739179126728887
1076.0,0.3737618402677739
1077.0,0.3737864247352679
1078.0,0.37388309766576844
1079.0,0.37395300634903206
1080.0,0.37399693395384576
1081.0,0.37421722373594285
1082.0,0.374095419032881
1083.0,0.3739483272933427
1084.0,0.37363822332804414
1085.0,0.3734297286990486
1086.0,0.37398784097650417
1087.0,0.3743188729860112
1088.0,0.3745270694319717
1089.0,0.374738591318043
1090.0,0.37416594488192534
1091.0,0.3739079091750836
1092.0,0.3740039833340054
1093.0,0.37404709743945114
1094.0,0.3741619066400546
1095.0,0.3746155409382733
1096.0,0.37467824428085245
1097.0,0.3745990798731625
1098.0,0.3745708161713851
1099.0,0.3745619048164427
1100.0,0.37452945509556884
1101.0,0.37453572542743646
1102.0,0.3746992556318918
1103.0,0.3746086246089505
1104.0,0.37458316709712164
1105.0,0.3743718499139133
1106.0,0.37390264575379006
1107.0,0.37392913392801486
1108.0,0.37421796081290043
1109.0,0.3743753151201954
1110.0,0.374508306129807
1111.0,0.37464720304801347
1112.0,0.3747476772701447
1113.0,0.374381732376849
1114.0,0.3740308357937317
1115.0,0.3740380794924351
1116.0,0.37352303969005946
1117.0,0.3731602772215612
1118.0,0.37288125314552223
1119.0,0.3718195399889005
1120.0,0.3713052374814784
1121.0,0.37078303918408667
1122.0,0.36987448512906473
1123.0,0.3703692012473839
1124.0,0.3707995398234195
1125.0,0.3705414987127144
1126.0,0.3701799029509833
1127.0,0.36965851185464516
1128.0,0.3693819713113427
1129.0,0.36886490979994074
