Wavelength (nm),Reflectance
350.0,0.13103707776856482
351.0,0.13139161058987955
352.0,0.13182982308318672
353.0,0.13209601317990793
354.0,0.1320362310669318
355.0,0.1323578988762314
356.0,0.13305037782051454
357.0,0.13341641202496357
358.0,0.13356901813401767
359.0,0.13375664394491987
360.0,0.13414662354588502
361.0,0.1347370951859731
362.0,0.13546962916713998
363.0,0.1359492457899521
364.0,0.13608992864364225
365.0,0.13672558893521228
366.0,0.13714136528768947
367.0,0.13738820925444215
368.0,0.1377890770765918
369.0,0.13859141904722083
370.0,0.1391960857193219
371.0,0.13955588103628974
372.0,0.14001128753569442
373.0,0.14056151262768032
374.0,0.14103938153804826
375.0,0.14155596866748268
376.0,0.14251855840787392
377.0,0.1432858009839078
378.0,0.14384645771815696
379.0,0.14431919755259562
380.0,0.14479771192742677
381.0,0.14547629640017637
382.0,0.14610523133226075
383.0,0.14654126722816924
384.0,0.1476050272227797
385.0,0.14838038505724852
386.0,0.14887978304002616
387.0,0.14955800277106007
388.0,0.1503225764948244
389.0,0.15091205059672796
390.0,0.15138107106940402
391.0,0.15204450578058545
392.0,0.15275904165321222
393.0,0.15329043107463847
394.0,0.15361088010351634
395.0,0.1540094579124152
396.0,0.1546439994881812
397.0,0.1553483480566127
398.0,0.1559489109402217
399.0,0.1564615381492141
400.0,0.15690851003228162
401.0,0.1573246645224268
402.0,0.15772615143846427
403.0,0.15797754724027022
404.0,0.15834604120511223
405.0,0.1588888945174021
406.0,0.1594627227533981
407.0,0.16004900845687342
408.0,0.1605353419240842
409.0,0.16092303210245004
410.0,0.16141174211655063
411.0,0.16196757129304168
412.0,0.1624966770676479
413.0,0.16292817899306336
414.0,0.1633019852553567
415.0,0.16381019498332122
416.0,0.1643866155511909
417.0,0.16486719094661814
418.0,0.16546044113975128
419.0,0.1660052656054756
420.0,0.1664640566545549
421.0,0.16696253804148492
422.0,0.1675111656999139
423.0,0.16811254918762922
424.0,0.16874387931649765
425.0,0.16933344714624565
426.0,0.16992359736154045
427.0,0.17050132456802244
428.0,0.17105755116086518
429.0,0.17169195952036348
430.0,0.17232137058638278
431.0,0.17294398385570509
432.0,0.17361829204314178
433.0,0.17430109321680184
434.0,0.17490680603636913
435.0,0.17544099034355978
436.0,0.17603536598655345
437.0,0.17663656239922743
438.0,0.1772452332329382
439.0,0.17786831048979443
440.0,0.17850635823691657
441.0,0.17910855099291312
442.0,0.17967240398973533
443.0,0.18021462393737778
444.0,0.18065842130740917
445.0,0.1811651794898128
446.0,0.18175028715963637
447.0,0.1822468702359226
448.0,0.182722654796211
449.0,0.18321990726880175
450.0,0.18374441312322484
451.0,0.18423040394408055
452.0,0.18465711896699522
453.0,0.18505747140438555
454.0,0.18548056364993817
455.0,0.18590551671599023
456.0,0.1863216077984504
457.0,0.18672989044742888
458.0,0.18713945824830436
459.0,0.18747537593142255
460.0,0.1878330115421293
461.0,0.18825894608646754
462.0,0.18863720286210575
463.0,0.18899486705897897
464.0,0.1893324366845145
465.0,0.1896530760446887
466.0,0.18999116314940417
467.0,0.1903515399970399
468.0,0.19070866209736795
469.0,0.19102147370533626
470.0,0.19135099898859248
471.0,0.19170537574327934
472.0,0.19207481849537042
473.0,0.19243799091070565
474.0,0.19271581066826257
475.0,0.19299225122863864
476.0,0.19336164405892864
477.0,0.19373988151415528
478.0,0.19413200433494096
479.0,0.19451397489051803
480.0,0.19485219386272556
481.0,0.195219171148708
482.0,0.19563040717353872
483.0,0.19606396074010143
484.0,0.19644249900387198
485.0,0.19684417838492405
486.0,0.19724518106846992
487.0,0.19763069869651823
488.0,0.1981472971832118
489.0,0.19863946590267545
490.0,0.19906630960114535
491.0,0.19947747801451834
492.0,0.19992791380995714
493.0,0.20035488295780687
494.0,0.20076072586951604
495.0,0.20126780766485317
496.0,0.2017352928191934
497.0,0.2021652589111657
498.0,0.20260270215527057
499.0,0.2030840093953331
500.0,0.20357108132466264
501.0,0.20404464134836345
502.0,0.20450187238415732
503.0,0.20495995909098905
504.0,0.20544840695439184
505.0,0.20595475097353927
506.0,0.2064071212888123
507.0,0.2068451131439971
508.0,0.20730141111210104
509.0,0.20778865351183418
510.0,0.20825108202836043
511.0,0.20872198473239562
512.0,0.20921175393844443
513.0,0.209711978305526
514.0,0.21018774898981324
515.0,0.21066908668507855
516.0,0.21117495847437218
517.0,0.21168817343763816
518.0,0.2122253152111646
519.0,0.2127756983180133
520.0,0.2133072955994991
521.0,0.2137559445180552
522.0,0.21420591576277448
523.0,0.21470093266600354
524.0,0.21524287880658657
525.0,0.21574165804492454
526.0,0.21625853235156012
527.0,0.21682048646367805
528.0,0.21736349826341783
529.0,0.2179351705063436
530.0,0.21851824044346782
531.0,0.21909485310000149
532.0,0.2196714823906259
533.0,0.22027428724577988
534.0,0.22091432802863356
535.0,0.22158801817911625
536.0,0.22222726725706993
537.0,0.22284666360920435
538.0,0.2234961917024166
539.0,0.22425574921218835
540.0,0.22497858974842583
541.0,0.2256853621280341
542.0,0.22644167425016826
543.0,0.22720544138800855
544.0,0.22793990328608724
545.0,0.22867149493296654
546.0,0.22946637062985153
547.0,0.23022418278328455
548.0,0.23102625806837293
549.0,0.23191808523240537
550.0,0.2327914494183122
551.0,0.2336921060476505
552.0,0.2346353307154596
553.0,0.23562520400226997
554.0,0.23668264787528326
555.0,0.2377468886084845
556.0,0.2388016373719249
557.0,0.23988268365580387
558.0,0.2410041574424044
559.0,0.24211667004490423
560.0,0.2431838582806575
561.0,0.2442657499506418
562.0,0.24532376924265165
563.0,0.24636634051170636
564.0,0.24741596844188918
565.0,0.24842208525713078
566.0,0.24945869016868544
567.0,0.2505534517251959
568.0,0.2516620592911908
569.0,0.2528228723009164
570.0,0.25401321319766085
571.0,0.2552008656829553
572.0,0.2564261566874257
573.0,0.2575678831525558
574.0,0.258604160293449
575.0,0.2595870064287635
576.0,0.2606206974828978
577.0,0.2616352052929777
578.0,0.2625971667393157
579.0,0.2635704871935984
580.0,0.2644747985510355
581.0,0.26534744195711757
582.0,0.26625103757738067
583.0,0.267204825244758
584.0,0.26811963101131897
585.0,0.2689998107689241
586.0,0.2699037967081014
587.0,0.2707299163480762
588.0,0.27147742572627226
589.0,0.2721974805621981
590.0,0.272990989726569
591.0,0.2737071903158754
592.0,0.27433110726541776
593.0,0.27492510514045987
594.0,0.27555044279799645
595.0,0.27617716058833325
596.0,0.2767739693513152
597.0,0.27732344123130814
598.0,0.2778671187902366
599.0,0.2784085485752575
600.0,0.2789366522322025
601.0,0.27942552483071864
602.0,0.2799110720247303
603.0,0.2803847303622801
604.0,0.2808258996459648
605.0,0.28124356512100435
606.0,0.2816424458917564
607.0,0.282032329892852
608.0,0.2824267962885701
609.0,0.2827953507263951
610.0,0.283149577882319
611.0,0.28350489585989364
612.0,0.28386833358751046
613.0,0.2842258529856702
614.0,0.28457098590695856
615.0,0.2849009440936896
616.0,0.2852163983493044
617.0,0.28551870738842094
618.0,0.28581109926060394
619.0,0.2861065790175648
620.0,0.2863661466552494
621.0,0.2866178331026253
622.0,0.28689195551337693
623.0,0.28718163724303086
624.0,0.2874348650742252
625.0,0.2876731404020886
626.0,0.2879535602776232
627.0,0.2882193721005003
628.0,0.28844522434573705
629.0,0.28865433576235094
630.0,0.28893837599961414
631.0,0.28919208009531594
632.0,0.2894271144610958
633.0,0.2896718616345986
634.0,0.2898942877786465
635.0,0.2900902452237648
636.0,0.29028676783597024
637.0,0.29052538079490636
638.0,0.290782168712871
639.0,0.29100225238586935
640.0,0.29118303742297874
641.0,0.2914144471689375
642.0,0.29162990762084506
643.0,0.2918341323768761
644.0,0.2920439261779905
645.0,0.29221173670058836
646.0,0.2924205644283359
647.0,0.2926525898418224
648.0,0.2928129667539212
649.0,0.29298672139273124
650.0,0.29320069789708636
651.0,0.2934432202673872
652.0,0.29365615892111474
653.0,0.29388520666922124
654.0,0.29408444508924586
655.0,0.29421926276757887
656.0,0.2944593661184893
657.0,0.29468180352414647
658.0,0.29484276748338567
659.0,0.29502498608943023
660.0,0.29521783729970785
661.0,0.29540863646190124
662.0,0.29557597999861546
663.0,0.2956825665122312
664.0,0.29587069455791976
665.0,0.2961250282813861
666.0,0.29636090736087517
667.0,0.2964932691918902
668.0,0.29663186749509546
669.0,0.29682621887028937
670.0,0.29705081275353373
671.0,0.2971877107934791
672.0,0.29732533316573756
673.0,0.29752727261380063
674.0,0.2977030256037834
675.0,0.2978755020962055
676.0,0.2980185614759625
677.0,0.2981165010538665
678.0,0.298318086464482
679.0,0.29850268473519415
680.0,0.2986508394867806
681.0,0.2988588565545166
682.0,0.29902167340208735
683.0,0.2991339574512376
684.0,0.2992207373662075
685.0,0.29933109296292854
686.0,0.29944737488899026
687.0,0.29961491928387624
688.0,0.2998491244385718
689.0,0.2999384673369257
690.0,0.3000796818036174
691.0,0.30028948300726155
692.0,0.3003899949614465
693.0,0.3004265450084782
694.0,0.30052914969591227
695.0,0.30074767104790207
696.0,0.3009159232926593
697.0,0.3010131408088586
698.0,0.3011008619892616
699.0,0.30125562992219346
700.0,0.3014045439038582
701.0,0.3015419864347386
702.0,0.3016750918329258
703.0,0.30181673693535477
704.0,0.30191408697721683
705.0,0.3020388370791115
706.0,0.3022170378769668
707.0,0.3023162998533767
708.0,0.3023752876944132
709.0,0.3024731593923534
710.0,0.3026617970520946
711.0,0.3027399159266714
712.0,0.30288659291257664
713.0,0.3030876305134901
714.0,0.303144245733304
715.0,0.3032657625326897
716.0,0.3034044010729435
717.0,0.30350038797236367
718.0,0.3035490861254317
719.0,0.3036817643289171
720.0,0.3038943879812254
721.0,0.3041012158717455
722.0,0.30423111257252117
723.0,0.30432425576024313
724.0,0.3044161438248688
725.0,0.30452567657851193
726.0,0.30467218144296215
727.0,0.3048356330859897
728.0,0.3049974914529711
729.0,0.30514173992282323
730.0,0.3052815604209318
731.0,0.30542749169609157
732.0,0.30558119181362564
733.0,0.3057286517496902
734.0,0.30581061796128933
735.0,0.305870958707795
736.0,0.3060050171922545
737.0,0.3061695156015053
738.0,0.3062707593545294
739.0,0.3063337462288305
740.0,0.30655458094753946
741.0,0.3066804735519735
742.0,0.30677138983440927
743.0,0.30691877543820184
744.0,0.30705684807697425
745.0,0.30719468517061665
746.0,0.30733942532457975
747.0,0.3074930803242555
748.0,0.30761938815447154
749.0,0.307794741885706
750.0,0.30800773928652847
751.0,0.30814274356542565
752.0,0.30827351021248756
753.0,0.3083911635044055
754.0,0.3084982160403232
755.0,0.3086631524652115
756.0,0.3088095773413105
757.0,0.3089767039705486
758.0,0.3091884366833326
759.0,0.3090772702440493
760.0,0.3086485862669211
761.0,0.3082142778112956
762.0,0.30890172084288864
763.0,0.30929389660269346
764.0,0.30972662133128126
765.0,0.31020869642984034
766.0,0.3104914656062654
767.0,0.31052052221191934
768.0,0.3105103119612541
769.0,0.3105882874110018
770.0,0.3106872055876599
771.0,0.3107453409268383
772.0,0.3108054686800266
773.0,0.3109349443249369
774.0,0.31099734479741936
775.0,0.31108178102438777
776.0,0.3112023197210397
777.0,0.3112856644620628
778.0,0.3113546248926917
779.0,0.3114465354827564
780.0,0.31158017723022347
781.0,0.3117387700691053
782.0,0.31181944368314196
783.0,0.3118620600755476
784.0,0.3119371015998629
785.0,0.31203472859259684
786.0,0.31213673088790855
787.0,0.31222425602632753
788.0,0.3122877081971841
789.0,0.31238984606787257
790.0,0.312430613491001
791.0,0.3124437392189663
792.0,0.3126122281117559
793.0,0.31265578329853894
794.0,0.31266542434621564
795.0,0.31273048229223893
796.0,0.3127816851283759
797.0,0.3128341498568319
798.0,0.31289001656841575
799.0,0.3129416653373322
800.0,0.31294655835950613
801.0,0.31299507861802894
802.0,0.3130802599413267
803.0,0.31313575351183354
804.0,0.31312949348202845
805.0,0.3131422339337249
806.0,0.31319091810166166
807.0,0.3132211100559139
808.0,0.313292868250038
809.0,0.31336797807139
810.0,0.31340667161370434
811.0,0.31339970697238423
812.0,0.31343330046939316
813.0,0.3134375588459297
814.0,0.3133612519334401
815.0,0.31341185562754037
816.0,0.31344860723824963
817.0,0.3134529589877708
818.0,0.31348613059067965
819.0,0.31365223476378296
820.0,0.3137275807438604
821.0,0.3136682444618487
822.0,0.3135743037882971
823.0,0.31352566893719624
824.0,0.31355585744625525
825.0,0.31361345124648354
826.0,0.3135827587516122
827.0,0.3135028462758948
828.0,0.31349612764314533
829.0,0.3135876206110338
830.0,0.31353262223157324
831.0,0.3135076717553296
832.0,0.31345782652314363
833.0,0.31333394477518894
834.0,0.31334941782007336
835.0,0.31343138981152524
836.0,0.3134448879909237
837.0,0.3132988092550708
838.0,0.3132735271178638
839.0,0.31324989065591363
840.0,0.3132256342847742
841.0,0.31328280613207826
842.0,0.313231105874327
843.0,0.3131424304655037
844.0,0.31309204998839624
845.0,0.31310749437995467
846.0,0.31307362720017684
847.0,0.31309136284368216
848.0,0.31317803038146325
849.0,0.3131147303489424
850.0,0.31305208881998065
851.0,0.3130974893138418
852.0,0.313222375441134
853.0,0.3130336349718985
854.0,0.3129432264578608
855.0,0.3129994185628574
856.0,0.31307883977590195
857.0,0.3130947307239566
858.0,0.3130744348694248
859.0,0.31305152535957537
860.0,0.3130389191413238
861.0,0.3129038183988058
862.0,0.312799754235521
863.0,0.31278414557624656
864.0,0.3128002892987808
865.0,0.3126871174711342
866.0,0.31265584656391554
867.0,0.31276494871984795
868.0,0.31282333742156665
869.0,0.31278593851875686
870.0,0.31277864426514346
871.0,0.31282760549786087
872.0,0.3127671360367061
873.0,0.31265931245421524
874.0,0.3126420373918028
875.0,0.3127686473379703
876.0,0.3128829685721904
877.0,0.3128016706876704
878.0,0.3127508895912596
879.0,0.31289427258511876
880.0,0.31280475600148994
881.0,0.31282786572180193
882.0,0.31298760719855395
883.0,0.31314323835081875
884.0,0.3130333928058939
885.0,0.3130566642996365
886.0,0.31315516638409235
887.0,0.31311961741366423
888.0,0.31325619462004395
889.0,0.3133466410638252
890.0,0.3133373809876483
891.0,0.31330789202185455
892.0,0.31336308723547646
893.0,0.31335619165403006
894.0,0.313241863693885
895.0,0.31310766964895553
896.0,0.31322070991730716
897.0,0.3132144131122237
898.0,0.313011992390918
899.0,0.31293700603857066
900.0,0.3129468554541541
901.0,0.3130840699363313
902.0,0.3133058470392487
903.0,0.3134922981415101
904.0,0.31367722811197885
905.0,0.31364198856155323
906.0,0.31342742500817405
907.0,0.3134436354236512
908.0,0.3134465843417038
909.0,0.31352419450549923
910.0,0.313743887709853
911.0,0.31402769111641393
912.0,0.3138510998852423
913.0,0.3135843948808622
914.0,0.31355852760415037
915.0,0.313658478132387
916.0,0.313740704890012
917.0,0.31392927088431455
918.0,0.3142631080574479
919.0,0.31451958581692213
920.0,0.31471352435643407
921.0,0.3147620055845464
922.0,0.314642786472694
923.0,0.3144765922458146
924.0,0.3145603925273759
925.0,0.31460750335296517
926.0,0.31442661144866274
927.0,0.3144946118647805
928.0,0.31419594336969364
929.0,0.3135940860322979
930.0,0.31279274876997476
931.0,0.31126609572214176
932.0,0.30973816175512736
933.0,0.30911432652521525
934.0,0.3095675709157511
935.0,0.30889286210892125
936.0,0.3090191850161185
937.0,0.30965303366629243
938.0,0.310250108018073
939.0,0.31119771891599224
940.0,0.3121556604980026
941.0,0.31221459270714363
942.0,0.3113093457841251
943.0,0.31156810234290816
944.0,0.3114775229389074
945.0,0.3112901473849972
946.0,0.31152039751749194
947.0,0.3120120391646403
948.0,0.31194280838648847
949.0,0.3121804600834847
950.0,0.3130193373998973
951.0,0.31281126944096016
952.0,0.31237422712420204
953.0,0.31249267764915534
954.0,0.3131891488629766
955.0,0.3132037114590992
956.0,0.31358725326251324
957.0,0.31398854457218434
958.0,0.3140924428397076
959.0,0.3141522587732279
960.0,0.31424688835723086
961.0,0.3146799670955438
962.0,0.315412036058951
963.0,0.3159294819584528
964.0,0.3161564086383205
965.0,0.31646906055630614
966.0,0.316912122455937
967.0,0.3171081297751028
968.0,0.3173364903034599
969.0,0.3175756732005111
970.0,0.3178165145827838
971.0,0.3181117360797839
972.0,0.3186348301675803
973.0,0.31867944638144924
974.0,0.318201339275744
975.0,0.31789340549798617
976.0,0.31831885329703175
977.0,0.3183527614653427
978.0,0.31801450305821877
979.0,0.31818382322243377
980.0,0.31887101053606076
981.0,0.3194117190239105
982.0,0.3195045658888152
983.0,0.31928114435342353
984.0,0.31943611902317864
985.0,0.319898960910558
986.0,0.3202263549232039
987.0,0.3200144239559766
988.0,0.31939334790901
989.0,0.31993343097666627
990.0,0.32072371480199413
991.0,0.32071728125599325
992.0,0.32087955894883663
993.0,0.3202859182208176
994.0,0.3198470136446289
995.0,0.32011778802512997
996.0,0.3201779972809629
997.0,0.320220542201391
998.0,0.320104678573999
999.0,0.31994358322681404
1000.0,0.32010631753457164
1001.0,0.3285128270694108
1002.0,0.3285389647385155
1003.0,0.3287334759835262
1004.0,0.3290673338424302
1005.0,0.329153678004539
1006.0,0.32922660720399355
1007.0,0.3292361753068067
1008.0,0.32890804361310066
1009.0,0.32903612912196245
1010.0,0.3290667327688142
1011.0,0.32909682554899694
1012.0,0.3291876973924351
1013.0,0.3292000063453828
1014.0,0.3293913346345798
1015.0,0.32940386192010224
1016.0,0.32939076872340123
1017.0,0.3292016389668509
1018.0,0.3292646741141069
1019.0,0.32932719685068423
1020.0,0.3295338568624643
1021.0,0.32999877418053725
1022.0,0.3303829475408329
1023.0,0.3305113471959594
1024.0,0.3306903582535932
1025.0,0.33052110554129993
1026.0,0.33000158319712625
1027.0,0.32956640332784654
1028.0,0.32940978871314053
1029.0,0.32946014795173956
1030.0,0.32959723171607963
1031.0,0.3297776478735558
1032.0,0.33013007033012176
1033.0,0.33025267124680086
1034.0,0.3303706844413944
1035.0,0.3304056160325147
1036.0,0.3302572916893722
1037.0,0.3302928782669137
1038.0,0.33024618080351176
1039.0,0.3302804104106784
1040.0,0.3303194260465508
1041.0,0.33021027405663034
1042.0,0.3301901696979505
1043.0,0.3301860439371306
1044.0,0.330184872399079
1045.0,0.3300848499480214
1046.0,0.3300489437515288
1047.0,0.3299136437470269
1048.0,0.3299784503150411
1049.0,0.3302013867056031
1050.0,0.3303957049232641
1051.0,0.33066440210274634
1052.0,0.3309709134601999
1053.0,0.33113184164955783
1054.0,0.3312448011849991
1055.0,0.33140472336480636
1056.0,0.33125752897114946
1057.0,0.3310653363270603
1058.0,0.33102943677165775
1059.0,0.3310004231971145
1060.0,0.33094116019056713
1061.0,0.33079028005495725
1062.0,0.3307590299506905
1063.0,0.33061485698227033
1064.0,0.3303101718197078
1065.0,0.3300884426893361
1066.0,0.33009601827142604
1067.0,0.329964443223153
1068.0,0.33005635169462083
1069.0,0.330325958019742
1070.0,0.33067083536478514
1071.0,0.3309775318955233
1072.0,0.33090425057163086
1073.0,0.33058950852226915
1074.0,0.3302041947576873
1075.0,0.33002931082254766
1076.0,0.33030362179228356
1077.0,0.3306767704398041
1078.0,0.33087084328849137
1079.0,0.3311419904882039
1080.0,0.33117882087515305
1081.0,0.33098295789133225
1082.0,0.3309043516726984
1083.0,0.3308227613745684
1084.0,0.33072644321719696
1085.0,0.33079093153691463
1086.0,0.33080401139023985
1087.0,0.33079617819282237
1088.0,0.33086192151100885
1089.0,0.3307422585373248
1090.0,0.3305818237222568
1091.0,0.330625611947915
1092.0,0.3307038235862496
1093.0,0.3307738098711114
1094.0,0.3308584698050679
1095.0,0.330964960185258
1096.0,0.33117259113190034
1097.0,0.3313561887094069
1098.0,0.33151263616829335
1099.0,0.33171123154179827
1100.0,0.33148651344026053
1101.0,0.3312219645886939
1102.0,0.3311392151729029
1103.0,0.33102021401867227
1104.0,0.3312073386417469
1105.0,0.33141956103009795
1106.0,0.3313898817223261
1107.0,0.33131371041103436
1108.0,0.33131183536930414
1109.0,0.3312275518032907
1110.0,0.3310429483998696
1111.0,0.33104731233164786
1112.0,0.33129181305561994
1113.0,0.33120871162442556
1114.0,0.3310281304941463
1115.0,0.3313704928191815
1116.0,0.3314097172594279
1117.0,0.3316052362730353
1118.0,0.3320397414179228
1119.0,0.3321326611028461
1120.0,0.3320063093675907
1121.0,0.3315909373924027
1122.0,0.33137632849849913
1123.0,0.33133200366937154
1124.0,0.3310654936326352
1125.0,0.3307416995623908
1126.0,0.3306771953937467
1127.0,0.3306600715777839
1128.0,0.33056127169718663
