Wavelength (nm),Reflectance
350.0,0.1346424572297486
351.0,0.13483910448054762
352.0,0.13536710283749648
353.0,0.13571955596987037
354.0,0.13625418004545747
355.0,0.13666144644226352
356.0,0.13701624206090132
357.0,0.13771089243279372
358.0,0.1378920243742104
359.0,0.13796126313569534
360.0,0.138291892217676
361.0,0.13890570527485444
362.0,0.13942331987820378
363.0,0.13998497811212757
364.0,0.14062028166320295
365.0,0.1407321938113535
366.0,0.1410476469232114
367.0,0.14160933856653565
368.0,0.1422060147490125
369.0,0.1427155595771936
370.0,0.1432374074808067
371.0,0.14380014773535055
372.0,0.14438452084069645
373.0,0.1450840393393858
374.0,0.14571010963108616
375.0,0.14623466337179394
376.0,0.14685085885554836
377.0,0.14766829719700525
378.0,0.14846338865027323
379.0,0.1491102356207415
380.0,0.1498078315694129
381.0,0.1504308819927159
382.0,0.15093641832170684
383.0,0.15141106829244777
384.0,0.15230037097851554
385.0,0.15313293046548626
386.0,0.15385915286811672
387.0,0.1546313277263484
388.0,0.15533829367785848
389.0,0.15590851620756307
390.0,0.15642694255277703
391.0,0.15709319651662734
392.0,0.1579171920285629
393.0,0.158546237494191
394.0,0.15889750838287875
395.0,0.1593721013134778
396.0,0.15995834685234173
397.0,0.16064416527091568
398.0,0.161345229100115
399.0,0.16181204294946072
400.0,0.16233031866361586
401.0,0.16285220122274
402.0,0.16324350585811007
403.0,0.16364065730444344
404.0,0.16405176597229604
405.0,0.16449666999127802
406.0,0.16500792408192436
407.0,0.16556917827857973
408.0,0.16619852333473456
409.0,0.16683798827598736
410.0,0.16729939605640284
411.0,0.16778838222191356
412.0,0.1682581197649971
413.0,0.16867360730824338
414.0,0.1692708727680578
415.0,0.1698417447351476
416.0,0.17035315040920376
417.0,0.1708777740810204
418.0,0.1715074911024303
419.0,0.1721101218513999
420.0,0.1726249895871198
421.0,0.17309647875175563
422.0,0.173689834995774
423.0,0.17436803868377826
424.0,0.17504477613686947
425.0,0.17560653613232408
426.0,0.17625116950992967
427.0,0.17690003610784685
428.0,0.17744257824520349
429.0,0.1781214309330768
430.0,0.17884653724130403
431.0,0.17954153457241362
432.0,0.18017713636862867
433.0,0.1809335917514089
434.0,0.1816295252453744
435.0,0.18221360947211782
436.0,0.1828759998485509
437.0,0.18350746509534152
438.0,0.18411715888722266
439.0,0.1847391646012396
440.0,0.18540187148398515
441.0,0.1860580385129144
442.0,0.18666788085977015
443.0,0.18721453012243355
444.0,0.1877694880734215
445.0,0.1883702134331059
446.0,0.18897829030639712
447.0,0.1894799635753228
448.0,0.18996114403120498
449.0,0.19047919795606583
450.0,0.1910481010342018
451.0,0.1916089243082604
452.0,0.1920593123674297
453.0,0.19246486505826685
454.0,0.19293962037981488
455.0,0.19340420914907377
456.0,0.19384668551171602
457.0,0.19427593631037127
458.0,0.19471432548169587
459.0,0.1950931209420489
460.0,0.19549552078865837
461.0,0.19595520756981719
462.0,0.19634866919094293
463.0,0.1967051497359175
464.0,0.19707353528317387
465.0,0.1974883225042866
466.0,0.19786588270158825
467.0,0.19822591348342744
468.0,0.19858325161371412
469.0,0.19894236568450552
470.0,0.1992553017350974
471.0,0.19962132043429923
472.0,0.2000681819794796
473.0,0.20046710195883835
474.0,0.20078643935087503
475.0,0.2010963199387168
476.0,0.20147437324334294
477.0,0.20187673630617006
478.0,0.20227477870420307
479.0,0.20266233054360078
480.0,0.20305083164019727
481.0,0.20344135981288958
482.0,0.20388551727279366
483.0,0.2043681489402951
484.0,0.20474650646152376
485.0,0.20514615989949855
486.0,0.2055729688902778
487.0,0.20601723368418076
488.0,0.2065627614779579
489.0,0.2070765334459298
490.0,0.20753811362915006
491.0,0.20800755488000347
492.0,0.20848101563516677
493.0,0.20895730178793206
494.0,0.2094356395355381
495.0,0.20991748152314182
496.0,0.21039522533804952
497.0,0.21088444573514534
498.0,0.21139206307408137
499.0,0.211852920602015
500.0,0.21236542656582436
501.0,0.21290570355809388
502.0,0.21337817177898594
503.0,0.21384466002873032
504.0,0.21436268197728195
505.0,0.21491678283071017
506.0,0.215389287399591
507.0,0.21588392281961358
508.0,0.216397009928659
509.0,0.21690356007376646
510.0,0.2174090341045475
511.0,0.217896547321969
512.0,0.21838822927695445
513.0,0.21892416349613955
514.0,0.219447859131534
515.0,0.2199699110771831
516.0,0.22050121009849555
517.0,0.22103429557295537
518.0,0.22161916660400893
519.0,0.22219975520115476
520.0,0.2227158978303732
521.0,0.2232238631628281
522.0,0.22373523060458636
523.0,0.2242649618233935
524.0,0.2248218434506106
525.0,0.22536325819900108
526.0,0.22591074999834304
527.0,0.2264831854291014
528.0,0.22708372677082297
529.0,0.22771638370748984
530.0,0.22834033540908677
531.0,0.22893226416925774
532.0,0.22953314548741047
533.0,0.23015817896527782
534.0,0.23083504125715
535.0,0.23159107497608855
536.0,0.2322850628177623
537.0,0.232946510282015
538.0,0.2336348163946298
539.0,0.23439727509567615
540.0,0.2351292496479194
541.0,0.23588265979841486
542.0,0.2367287452994121
543.0,0.2375410171141449
544.0,0.23830954190256295
545.0,0.23908240726092508
546.0,0.2399366991441706
547.0,0.24077045952230447
548.0,0.2416284937308487
549.0,0.2425519033396022
550.0,0.2435203647333465
551.0,0.24448750243561787
552.0,0.2454793185038562
553.0,0.2465393543069675
554.0,0.24763680149435513
555.0,0.24876894248711992
556.0,0.24991693732095943
557.0,0.2510447225546742
558.0,0.2522196103881756
559.0,0.25338460253634776
560.0,0.2544946976145618
561.0,0.25563414485971725
562.0,0.25675280153140084
563.0,0.2578511486023679
564.0,0.2589502204886953
565.0,0.2600331507631981
566.0,0.26114179112022573
567.0,0.2622812100396719
568.0,0.26340562366604514
569.0,0.26460440382279404
570.0,0.26586792747328714
571.0,0.26715886125744404
572.0,0.26849748522165734
573.0,0.26975787686729197
574.0,0.2708943939142813
575.0,0.2719308419537151
576.0,0.2730001139885637
577.0,0.2740330235801035
578.0,0.2750074919219265
579.0,0.27601792612662945
580.0,0.2770035475377868
581.0,0.2779376714659391
582.0,0.27883493314511676
583.0,0.2798136217597601
584.0,0.28075665058287436
585.0,0.2816771609439274
586.0,0.28266151725246097
587.0,0.28353651584475165
588.0,0.2843496367593456
589.0,0.2851580054105345
590.0,0.28595022140434534
591.0,0.2866768910963816
592.0,0.287334763564964
593.0,0.28796683865950784
594.0,0.28861562280887315
595.0,0.28925407455907154
596.0,0.28986942403114807
597.0,0.29047126546747776
598.0,0.29105109828603903
599.0,0.29164676128455386
600.0,0.29225097449089726
601.0,0.2927327044183818
602.0,0.2932673157346694
603.0,0.293807200202054
604.0,0.29424909786875536
605.0,0.2946872075824296
606.0,0.29511771371103773
607.0,0.2955368154217052
608.0,0.2959456635832504
609.0,0.29633321574644755
610.0,0.29671341191776307
611.0,0.29709943361657326
612.0,0.2974992765322032
613.0,0.29785659149904803
614.0,0.2981872724947197
615.0,0.2985369472777719
616.0,0.29888833479543603
617.0,0.2992317150728978
618.0,0.2995580505609572
619.0,0.2998686896316864
620.0,0.30013188291693466
621.0,0.30040800370670717
622.0,0.30073933090742894
623.0,0.3010484377598241
624.0,0.30132809111244724
625.0,0.30159266005958535
626.0,0.3018673464427963
627.0,0.3021284253944697
628.0,0.30237758949101023
629.0,0.3026264184450563
630.0,0.30289769100237945
631.0,0.30316993284417953
632.0,0.303432438145202
633.0,0.30367779830403074
634.0,0.30390095865898725
635.0,0.30411602943677485
636.0,0.3043302058874432
637.0,0.30454985056949657
638.0,0.3048470110473332
639.0,0.30511306741637234
640.0,0.30530643884769715
641.0,0.30553529851201683
642.0,0.30579090689677485
643.0,0.30602872358848876
644.0,0.3062204475187659
645.0,0.30645327453240345
646.0,0.30670667762401915
647.0,0.30693787254497645
648.0,0.30709872262105953
649.0,0.30728428379034917
650.0,0.3075061379639964
651.0,0.30775365283110245
652.0,0.3080142030906699
653.0,0.30827860976898025
654.0,0.30849653347426786
655.0,0.30864471988954184
656.0,0.3088795948068516
657.0,0.3091361912634432
658.0,0.30935856950443985
659.0,0.3095618968743636
660.0,0.3097174483586387
661.0,0.30991947696797895
662.0,0.31017411406853407
663.0,0.3102511228563204
664.0,0.3104311514884905
665.0,0.3107052793717306
666.0,0.31095307838542374
667.0,0.31110897745235333
668.0,0.3112273165728321
669.0,0.3113849090909648
670.0,0.31166033235940926
671.0,0.3118676898672671
672.0,0.31204427339294893
673.0,0.3122419697487411
674.0,0.3124471506348469
675.0,0.3126184738707144
676.0,0.31273997298978473
677.0,0.3128308680305568
678.0,0.31302761256447403
679.0,0.31323662152343384
680.0,0.3134102006259193
681.0,0.31356701291347316
682.0,0.3137699038741655
683.0,0.31395448693362704
684.0,0.31408432666358127
685.0,0.31426996090189324
686.0,0.31439470008982195
687.0,0.3144902196462761
688.0,0.31464253179464635
689.0,0.31485672303476575
690.0,0.31506518373160197
691.0,0.31524609325764774
692.0,0.3153974729401576
693.0,0.31546809978143076
694.0,0.3155613696726028
695.0,0.3157329577577148
696.0,0.3158631303772482
697.0,0.3160148557191321
698.0,0.31617194776548874
699.0,0.3162996783369876
700.0,0.31644512763398175
701.0,0.3166072420914122
702.0,0.3167682791174655
703.0,0.316898899794475
704.0,0.317011365842631
705.0,0.3171487660162563
706.0,0.3173224660187649
707.0,0.31746107421688846
708.0,0.31753964697223785
709.0,0.3176343353465013
710.0,0.3178240004932194
711.0,0.3179607589321606
712.0,0.31812974643738573
713.0,0.31831524887179147
714.0,0.3184051569672848
715.0,0.31852050893603967
716.0,0.3186427418710849
717.0,0.3187435166675368
718.0,0.3188083291238975
719.0,0.31892802754346417
720.0,0.3191385473455594
721.0,0.3193941144130705
722.0,0.3195318453841884
723.0,0.31962589467430214
724.0,0.3197143793512247
725.0,0.31979811139332776
726.0,0.31998081662573574
727.0,0.32017447396686977
728.0,0.32032005423243787
729.0,0.32044839756709076
730.0,0.32058778802453997
731.0,0.32075556699291935
732.0,0.32094748658408717
733.0,0.32112276540562534
734.0,0.32122712128707287
735.0,0.3212941271957642
736.0,0.32140712064342014
737.0,0.3216006836305957
738.0,0.321744024024995
739.0,0.3218207036497466
740.0,0.3220003350155219
741.0,0.3221430437999367
742.0,0.3222687557152531
743.0,0.32241529377237105
744.0,0.3225528672596848
745.0,0.32269877367591
746.0,0.32285569860522717
747.0,0.3230177324076976
748.0,0.3231742579973363
749.0,0.32335855320110723
750.0,0.3235605062074313
751.0,0.32371882040683897
752.0,0.32384940804207574
753.0,0.3239847409830281
754.0,0.3241517446850834
755.0,0.3243645842687234
756.0,0.3245195253375659
757.0,0.32467856125628974
758.0,0.32489765954087974
759.0,0.3247649938898501
760.0,0.3242375720718068
761.0,0.32366723961177213
762.0,0.3245297336333085
763.0,0.32501572138460966
764.0,0.3254977320863581
765.0,0.32601555126689785
766.0,0.3263228112144709
767.0,0.32639057396268367
768.0,0.3263826841985389
769.0,0.3264095996971446
770.0,0.32649006946225395
771.0,0.3265452378411337
772.0,0.3266320239585525
773.0,0.32682467818300825
774.0,0.3268702278349391
775.0,0.32693607623333565
776.0,0.32707158137107256
777.0,0.32717862591206776
778.0,0.32728007804724224
779.0,0.32739328110224736
780.0,0.32751893279471006
781.0,0.32762538195832425
782.0,0.32775444808945464
783.0,0.3278493884323394
784.0,0.3278743202704883
785.0,0.3279902145164454
786.0,0.3280996538045329
787.0,0.32819755440436277
788.0,0.328329803304605
789.0,0.32848533587598844
790.0,0.32853282614663776
791.0,0.3285163857129893
792.0,0.3286708948382102
793.0,0.32873416963750085
794.0,0.3287866363959604
795.0,0.3288860326221856
796.0,0.3289035922531546
797.0,0.32894868101613284
798.0,0.3290139346779017
799.0,0.32906761582852295
800.0,0.32912917204964387
801.0,0.32918675868222097
802.0,0.3292550282440332
803.0,0.32934699354800473
804.0,0.3293476878802426
805.0,0.3293601515388889
806.0,0.3294163056136406
807.0,0.3294582860908981
808.0,0.3295198671058506
809.0,0.32959117349461386
810.0,0.32965553897876254
811.0,0.32969920902480443
812.0,0.3297579145700257
813.0,0.3297718234228973
814.0,0.32970984996232866
815.0,0.32975925479400603
816.0,0.3298095556223157
817.0,0.32982676495973595
818.0,0.3298397996525332
819.0,0.3299667588875841
820.0,0.3300241774632313
821.0,0.32996128499316707
822.0,0.3298454533410642
823.0,0.32984068579714115
824.0,0.3299402790360806
825.0,0.3300440519597805
826.0,0.33001802293592636
827.0,0.329941642473998
828.0,0.32992345396166467
829.0,0.3299829679475961
830.0,0.32991174109925203
831.0,0.32991562056200996
832.0,0.329902915399406
833.0,0.3297820870869868
834.0,0.3297911719416739
835.0,0.32982461752329356
836.0,0.32980948645857183
837.0,0.3297306916993315
838.0,0.32978161852986665
839.0,0.3297537069863876
840.0,0.3296629231512845
841.0,0.329695783294975
842.0,0.3297115528498236
843.0,0.3297189232581837
844.0,0.3297099055604657
845.0,0.3296422341301624
846.0,0.3295978925009046
847.0,0.32963971034234524
848.0,0.3297480375584496
849.0,0.3297622983242822
850.0,0.3297501538087001
851.0,0.32974237457013866
852.0,0.3297205976314577
853.0,0.3295241343908175
854.0,0.3294880243385947
855.0,0.3295879119716361
856.0,0.3296526568301739
857.0,0.32965654779024955
858.0,0.3296197199416905
859.0,0.32957037831563557
860.0,0.3295393121318279
861.0,0.32954228228374016
862.0,0.3295404322132087
863.0,0.32949929696172225
864.0,0.32940420068226145
865.0,0.32933165817881216
866.0,0.3293589506990882
867.0,0.329464151553356
868.0,0.32951019289707606
869.0,0.3294407801232525
870.0,0.3294210409371787
871.0,0.32950734314069685
872.0,0.3295383142495237
873.0,0.32944331713309416
874.0,0.3293842531879591
875.0,0.3294600140967918
876.0,0.32950708969562786
877.0,0.3294983814400682
878.0,0.3295211229133723
879.0,0.32961676581349814
880.0,0.3295601286996196
881.0,0.3296551068570735
882.0,0.3298232388312192
883.0,0.32987603074199445
884.0,0.32981167391176563
885.0,0.32979706600842795
886.0,0.3298441957758718
887.0,0.32989649593947884
888.0,0.33001383045696525
889.0,0.33009699085013744
890.0,0.3301682759926684
891.0,0.33029570000640945
892.0,0.33029418793662196
893.0,0.330280220910045
894.0,0.33026024231933654
895.0,0.3301534814397742
896.0,0.3301514958243723
897.0,0.33007602284887644
898.0,0.3299631776441425
899.0,0.3300823185676436
900.0,0.33007634902216926
901.0,0.33020665163500074
902.0,0.33048945216565445
903.0,0.33062019929477776
904.0,0.33075769439419334
905.0,0.33080388073023104
906.0,0.33075130279983705
907.0,0.33074526506454566
908.0,0.33055207959363536
909.0,0.33048332754116866
910.0,0.33075190560402856
911.0,0.33119526923778275
912.0,0.3311099596278313
913.0,0.33089360666347545
914.0,0.33093422477605444
915.0,0.33112890487829333
916.0,0.3311706991012449
917.0,0.3312420848064895
918.0,0.3314937890726389
919.0,0.33179075624929255
920.0,0.3321407322673379
921.0,0.33233261050874
922.0,0.33222121026323204
923.0,0.331870990429395
924.0,0.33198519750883554
925.0,0.3321748203506583
926.0,0.3320422950147001
927.0,0.3319853534803536
928.0,0.33162992165776883
929.0,0.33103439101473625
930.0,0.3302768168271284
931.0,0.3290334829987664
932.0,0.3275805448664688
933.0,0.3267770169492239
934.0,0.32698002289711453
935.0,0.32616653551337743
936.0,0.3262864715246277
937.0,0.32707143016605383
938.0,0.3278568790478276
939.0,0.3286730866360165
940.0,0.32948843312268145
941.0,0.3296433742179541
942.0,0.32902539542136733
943.0,0.3290746998947792
944.0,0.3291250316425222
945.0,0.32915474907524417
946.0,0.32931963292040184
947.0,0.3297646242048054
948.0,0.3299167943356761
949.0,0.3301565938516695
950.0,0.3306668964717344
951.0,0.3307625432643167
952.0,0.3308427881820989
953.0,0.3308527323972238
954.0,0.3308620267924389
955.0,0.33131653711748976
956.0,0.3318162250220689
957.0,0.3321633115048537
958.0,0.33230053013035793
959.0,0.3323185477559163
960.0,0.33229657701625753
961.0,0.33263783575611394
962.0,0.3333867343779556
963.0,0.3340394801229363
964.0,0.33426601664979555
965.0,0.3346317170463127
966.0,0.3350841812254368
967.0,0.3348682675457055
968.0,0.3354441968782452
969.0,0.3358881833157502
970.0,0.33605975511522845
971.0,0.3367851979087399
972.0,0.3370617824417984
973.0,0.3367922047061229
974.0,0.33630658309979955
975.0,0.33619384843914474
976.0,0.3367894886204518
977.0,0.3369250648953459
978.0,0.33661568859605967
979.0,0.33675312750456865
980.0,0.3373377006991624
981.0,0.33767357307701124
982.0,0.33767756236482943
983.0,0.3376363048130722
984.0,0.3375838797575784
985.0,0.3379609947177469
986.0,0.3382806291987913
987.0,0.3379809699836428
988.0,0.3375615980823593
989.0,0.33838877660386274
990.0,0.33922145220622035
991.0,0.3389096775358034
992.0,0.3389327107267382
993.0,0.3385182851388944
994.0,0.33817699943627116
995.0,0.33823889989562467
996.0,0.3381689516694588
997.0,0.3387600593384524
998.0,0.3387418861467371
999.0,0.33797748448941184
1000.0,0.33812467215645625
1001.0,0.34745986672680623
1002.0,0.34737039111602624
1003.0,0.34747484432975734
1004.0,0.34757179164593033
1005.0,0.3476065034038821
1006.0,0.34772638052265803
1007.0,0.34774471930908507
1008.0,0.34763291603271157
1009.0,0.34752921957684085
1010.0,0.34738748318804313
1011.0,0.3474513791318707
1012.0,0.34752242389005233
1013.0,0.34771386487765743
1014.0,0.34796224397885456
1015.0,0.34787679034201074
1016.0,0.34773909422048077
1017.0,0.34719659106198314
1018.0,0.3471173716367161
1019.0,0.34708592439404456
1020.0,0.34727119133857764
1021.0,0.3477859639586931
1022.0,0.3482971116659324
1023.0,0.34861236706104376
1024.0,0.3488510390273048
1025.0,0.3488011508846253
1026.0,0.34853685431547077
1027.0,0.3482559972481673
1028.0,0.34814770282976826
1029.0,0.34794723639822567
1030.0,0.34788829368359797
1031.0,0.34795978278083817
1032.0,0.3481279468073876
1033.0,0.3481454656218747
1034.0,0.34836259598173525
1035.0,0.34839803745475595
1036.0,0.3481691826157169
1037.0,0.3481628564195733
1038.0,0.3482914232739592
1039.0,0.34837293944082254
1040.0,0.34838368456926816
1041.0,0.3484490453190238
1042.0,0.34845432305172597
1043.0,0.3482722596673062
1044.0,0.34810763696507946
1045.0,0.34800065487228526
1046.0,0.34803812598318606
1047.0,0.34812811093642543
1048.0,0.3481776097278089
1049.0,0.3484499860725439
1050.0,0.3485971713901912
1051.0,0.34850362031747434
1052.0,0.3487954394814517
1053.0,0.3491834993554205
1054.0,0.34931194309692715
1055.0,0.3494824991180586
1056.0,0.3493244763417342
1057.0,0.3490890807882252
1058.0,0.34897996849647106
1059.0,0.34908327471085054
1060.0,0.34934393001124314
1061.0,0.3493390127267749
1062.0,0.3491187666593185
1063.0,0.34891806181362356
1064.0,0.34848648264262944
1065.0,0.348169667479201
1066.0,0.34800525743039395
1067.0,0.3479988641726197
1068.0,0.34828156785116
1069.0,0.3486807629687064
1070.0,0.34916319157463427
1071.0,0.3495604136360767
1072.0,0.3494521676816447
1073.0,0.34880359089767604
1074.0,0.34829986750002623
1075.0,0.34814852210389285
1076.0,0.3482477448251221
1077.0,0.34861879425479
1078.0,0.3488227264592584
1079.0,0.3490594337972557
1080.0,0.34906029803171373
1081.0,0.34913490163061306
1082.0,0.34925852511128264
1083.0,0.349357095186263
1084.0,0.34941278139359383
1085.0,0.3494168188455098
1086.0,0.34946296475792227
1087.0,0.3493252162747123
1088.0,0.34921753803484856
1089.0,0.3492161603076222
1090.0,0.3490620177460084
1091.0,0.3490942524786279
1092.0,0.3492089940276163
1093.0,0.349156487965672
1094.0,0.34920491685662236
1095.0,0.34926750981642674
1096.0,0.3494216437215715
1097.0,0.34953329054475557
1098.0,0.3497816874790034
1099.0,0.34988111958926527
1100.0,0.34960446106980103
1101.0,0.3494394931346639
1102.0,0.349270815789156
1103.0,0.34909556557494625
1104.0,0.34927734018642664
1105.0,0.3495331180074135
1106.0,0.3495924324414931
1107.0,0.3495405449904393
1108.0,0.3495842455666715
1109.0,0.3494561009977585
1110.0,0.34906068143088836
1111.0,0.34894747006175053
1112.0,0.349022361688833
1113.0,0.34898025657672194
1114.0,0.3490682436497528
1115.0,0.3496924862417973
1116.0,0.35009829921584024
1117.0,0.35049517815204073
1118.0,0.3506241962759235
1119.0,0.35037284511758854
1120.0,0.3503923093117453
1121.0,0.35007999358783104
1122.0,0.3498476527301548
1123.0,0.3498412166419895
1124.0,0.34940201716610547
1125.0,0.34946909441533974
1126.0,0.34957198530964095
1127.0,0.34983738821350724
