Wavelength (nm),Reflectance
350.0,0.11356513959163099
351.0,0.11385159862141209
352.0,0.11413802378433296
353.0,0.11425014527842606
354.0,0.11460729014994514
355.0,0.11494592788226714
356.0,0.1151127339697397
357.0,0.11514351206781889
358.0,0.1153604517424053
359.0,0.1157245311378233
360.0,0.11611856053362642
361.0,0.11641138726422037
362.0,0.11674266334784289
363.0,0.11706650262145073
364.0,0.11736487512206814
365.0,0.11782051603409867
366.0,0.11799664906050246
367.0,0.11809732214915146
368.0,0.11847190353731137
369.0,0.11901329180051778
370.0,0.11942908351900955
371.0,0.11966520771628968
372.0,0.11989381562838254
373.0,0.12059678096062064
374.0,0.12129276775844658
375.0,0.12176322834180843
376.0,0.12223008516968273
377.0,0.12295903279683482
378.0,0.12359445177067344
379.0,0.12394491222480945
380.0,0.12437672192903944
381.0,0.12485456243368116
382.0,0.12531417493803101
383.0,0.12571893666156564
384.0,0.12617244618884715
385.0,0.12691247854786664
386.0,0.12767255312223127
387.0,0.12806066585739104
388.0,0.1285960245493026
389.0,0.12905809554193165
390.0,0.12942960266930595
391.0,0.12990542838279767
392.0,0.1304673978133564
393.0,0.13104969680871278
394.0,0.13155419601859097
395.0,0.13185512702809862
396.0,0.132260606899319
397.0,0.13267482210036158
398.0,0.13302341391232764
399.0,0.13354353633329918
400.0,0.13405122514701517
401.0,0.1344992817627517
402.0,0.13489053560223824
403.0,0.13513770800358443
404.0,0.13549384301630665
405.0,0.1359039684161163
406.0,0.13608056001307386
407.0,0.13657161980910476
408.0,0.13712669089871274
409.0,0.13753887072624807
410.0,0.13788934694587898
411.0,0.13824753849862667
412.0,0.13860147305988205
413.0,0.13895644822087597
414.0,0.13946808989827478
415.0,0.13993447957910332
416.0,0.14029427584793486
417.0,0.14059242683279413
418.0,0.14099452779878768
419.0,0.141444103251422
420.0,0.14187732237778983
421.0,0.14225350773666398
422.0,0.1426932849940142
423.0,0.14312630404365934
424.0,0.14352049834326505
425.0,0.14402032470447587
426.0,0.14444453072753421
427.0,0.14485673045731864
428.0,0.14535993994796398
429.0,0.14578613241815927
430.0,0.14629549102087241
431.0,0.1468750816233338
432.0,0.14738537819043543
433.0,0.1478837557376666
434.0,0.14835954522468103
435.0,0.14882231456705064
436.0,0.14931777683686356
437.0,0.1497721281199235
438.0,0.15018136479183433
439.0,0.15057120641944116
440.0,0.15099190394389514
441.0,0.15146868971550576
442.0,0.1519693876600468
443.0,0.15242950005985315
444.0,0.15279161905281352
445.0,0.15315871135756662
446.0,0.15356732597787032
447.0,0.15396324299998368
448.0,0.15443379974167545
449.0,0.1548466267412668
450.0,0.15513079057554102
451.0,0.15547749714349623
452.0,0.15582961354350144
453.0,0.15616048118891987
454.0,0.15646282205182446
455.0,0.1567861257365306
456.0,0.15712652127499782
457.0,0.15744599568874157
458.0,0.15768884074141237
459.0,0.15796054350787125
460.0,0.15822678575699772
461.0,0.15846711893565352
462.0,0.15874307831677242
463.0,0.15900842767335807
464.0,0.15924985280058732
465.0,0.15948013017599255
466.0,0.159777228498533
467.0,0.16004407949066524
468.0,0.1602546604103316
469.0,0.1604528906607416
470.0,0.1606930545274481
471.0,0.16091469807081296
472.0,0.1611097722935078
473.0,0.1613967616385043
474.0,0.16162410126140736
475.0,0.16183059626261778
476.0,0.16209476364274578
477.0,0.1624088989496506
478.0,0.1626968241162953
479.0,0.1629405283259365
480.0,0.16316990211975174
481.0,0.16342149507153916
482.0,0.16370045975934955
483.0,0.16398808933884554
484.0,0.16422988538086727
485.0,0.16449783488028097
486.0,0.16479771590509204
487.0,0.1651161089525071
488.0,0.1654580667959877
489.0,0.16579295867992275
490.0,0.16611146314665493
491.0,0.166423053461865
492.0,0.16672937981851751
493.0,0.16703429296482164
494.0,0.1673351403045066
495.0,0.16762023251228614
496.0,0.16789229496030045
497.0,0.16817810348490397
498.0,0.1684963738648505
499.0,0.16880754881319676
500.0,0.16911838215122102
501.0,0.16943492299699156
502.0,0.16976290018618762
503.0,0.1701151030778953
504.0,0.17046465811637873
505.0,0.17079591883842196
506.0,0.1711184551811605
507.0,0.1713995990588444
508.0,0.17170274405294994
509.0,0.17206915691457653
510.0,0.17235946494770557
511.0,0.17269825762807095
512.0,0.17308279786360573
513.0,0.17343199309923973
514.0,0.17380004722935471
515.0,0.17413884061662238
516.0,0.17443969046613447
517.0,0.17477653612098998
518.0,0.17517640964081366
519.0,0.17560286001038836
520.0,0.17599439352701918
521.0,0.17629123810857344
522.0,0.1766270148925796
523.0,0.1770107479075459
524.0,0.17736917507556374
525.0,0.1777262473135334
526.0,0.17806888700294493
527.0,0.17841084718633174
528.0,0.17882162446190242
529.0,0.17924537537657886
530.0,0.17965731705319912
531.0,0.18005237272986627
532.0,0.18042839431778843
533.0,0.1807818205981125
534.0,0.18117594919071447
535.0,0.18170336486658442
536.0,0.18213879782017411
537.0,0.1825274295854307
538.0,0.1829354932563823
539.0,0.18337578450914194
540.0,0.1838028773531671
541.0,0.18428333795230592
542.0,0.18486111298801794
543.0,0.1852777057616863
544.0,0.18569137305805578
545.0,0.18615222757554775
546.0,0.18659768197700544
547.0,0.18708770761419993
548.0,0.18759149724172497
549.0,0.188094585759093
550.0,0.18866375330608817
551.0,0.18923196175365442
552.0,0.18980532992632643
553.0,0.19040917730809667
554.0,0.1910142250860919
555.0,0.19163893133985252
556.0,0.1922628783833278
557.0,0.19282522662267165
558.0,0.1934509371882179
559.0,0.19411836392258644
560.0,0.1947638716385485
561.0,0.1953169632405381
562.0,0.19584830148236604
563.0,0.19639656675431685
564.0,0.1969719942654145
565.0,0.19749795086134275
566.0,0.19803557227718963
567.0,0.19862386496122345
568.0,0.19925618909061216
569.0,0.19983409684703282
570.0,0.20044799530882326
571.0,0.2011684373599171
572.0,0.20186789555774365
573.0,0.20251147043547044
574.0,0.20310177139243796
575.0,0.20366511449572552
576.0,0.2041945975031796
577.0,0.20470414691278896
578.0,0.2052151363572726
579.0,0.2057595347532697
580.0,0.20625532889828047
581.0,0.2067376144299111
582.0,0.20724568286271908
583.0,0.20769456702658964
584.0,0.2081319294620914
585.0,0.2085836579797037
586.0,0.20905112661850206
587.0,0.20948927654061897
588.0,0.20987896929792627
589.0,0.21024209839070446
590.0,0.21066122484873287
591.0,0.211020649968345
592.0,0.21133909960864425
593.0,0.2116803675695533
594.0,0.21203442211292745
595.0,0.21240016766773095
596.0,0.21273967880999517
597.0,0.21299829121548208
598.0,0.21330521272619174
599.0,0.2136164884482664
600.0,0.21388914902524903
601.0,0.21415371670091177
602.0,0.21441980038956482
603.0,0.21465748152269676
604.0,0.21483762777562507
605.0,0.2150170938425017
606.0,0.2152102412225492
607.0,0.21540736242805553
608.0,0.21557856332269365
609.0,0.215768288734515
610.0,0.21596591063792936
611.0,0.2161502701882702
612.0,0.2163047555378428
613.0,0.21646671898235675
614.0,0.2166433324734797
615.0,0.21681629474278358
616.0,0.21690703846869253
617.0,0.21703069108144632
618.0,0.21721830873975911
619.0,0.21738077922485424
620.0,0.21751272151620724
621.0,0.2176445889861333
622.0,0.21779489271367225
623.0,0.21791483611561585
624.0,0.21798764471446389
625.0,0.2180844245771538
626.0,0.21830137001381344
627.0,0.21847063643092088
628.0,0.21857560056654432
629.0,0.2186570432980614
630.0,0.21881532833274756
631.0,0.2189314319709613
632.0,0.21900096694593107
633.0,0.21905943438515973
634.0,0.2191637419298059
635.0,0.2192253419648655
636.0,0.2192720292120642
637.0,0.21940091088772912
638.0,0.21953909609644365
639.0,0.21966136714835058
640.0,0.21975894898234777
641.0,0.21983447540485165
642.0,0.21994061451605038
643.0,0.22006244396091526
644.0,0.22016991939306374
645.0,0.22027096370605578
646.0,0.22036608338621008
647.0,0.22046822584228465
648.0,0.22059492075610423
649.0,0.22068164142543234
650.0,0.22076922600911336
651.0,0.22087805826069756
652.0,0.22095313868672156
653.0,0.2210767483934057
654.0,0.22123528067802956
655.0,0.22137720782742787
656.0,0.2214034980060558
657.0,0.22154640754656682
658.0,0.22176802389935524
659.0,0.22182441726990587
660.0,0.22187295978059443
661.0,0.22197522596917715
662.0,0.2221243872524935
663.0,0.22220012951952664
664.0,0.2222803838315644
665.0,0.22238407190685133
666.0,0.22251041466258586
667.0,0.22267593977087727
668.0,0.2227807986198536
669.0,0.2228406984938954
670.0,0.22298361289531898
671.0,0.22311495627360034
672.0,0.2232119568087439
673.0,0.22329819458320707
674.0,0.22348346240018455
675.0,0.22364956703041758
676.0,0.2237720296172936
677.0,0.22386876831601354
678.0,0.22395917735820267
679.0,0.22408358030258377
680.0,0.22422642645397167
681.0,0.2243189656328222
682.0,0.22445035255604875
683.0,0.2246014755678132
684.0,0.22474056009118717
685.0,0.2248618882111048
686.0,0.22498132389532333
687.0,0.22515058217918896
688.0,0.22538603399770546
689.0,0.22553414103769637
690.0,0.2256331729533333
691.0,0.22572059808106595
692.0,0.2257957423028313
693.0,0.22590225245773926
694.0,0.22601478229376748
695.0,0.22610750000900334
696.0,0.22618804907387907
697.0,0.22629722299018276
698.0,0.22644327720442717
699.0,0.22660488372692045
700.0,0.2266822486642204
701.0,0.226763659219712
702.0,0.22689034814925196
703.0,0.2270360477641758
704.0,0.22715649453621292
705.0,0.2272517560402286
706.0,0.2273387192552577
707.0,0.2274443107396167
708.0,0.22757864953327597
709.0,0.22771684105963655
710.0,0.22782461472674054
711.0,0.2279098749898911
712.0,0.22799589293015998
713.0,0.22810401540168126
714.0,0.22824918692985494
715.0,0.2284008777892083
716.0,0.22855037615967616
717.0,0.22870929646529248
718.0,0.2289106668750817
719.0,0.22910775635980557
720.0,0.22923419007775572
721.0,0.22927149607615013
722.0,0.2293397836813493
723.0,0.22942363526975584
724.0,0.2295416559232068
725.0,0.22971565489024098
726.0,0.2298067167686976
727.0,0.22987518179270336
728.0,0.22998231453986387
729.0,0.2301314321871972
730.0,0.23018934207404948
731.0,0.23019276418736292
732.0,0.2302247088900439
733.0,0.2303202148010319
734.0,0.23037011669058247
735.0,0.230393531894482
736.0,0.23047935209692708
737.0,0.23055693760658424
738.0,0.23063806156097907
739.0,0.23072277016275863
740.0,0.23077737881072152
741.0,0.2308437674300501
742.0,0.2309344080287426
743.0,0.23103679258162932
744.0,0.23109832559023993
745.0,0.2311208645539826
746.0,0.23115328131910456
747.0,0.2312491987737575
748.0,0.2313140716856265
749.0,0.23139791667090118
750.0,0.23150917403507656
751.0,0.23159743961101828
752.0,0.2316920571096752
753.0,0.2317892904258563
754.0,0.23187711566359043
755.0,0.23193619561006326
756.0,0.2319985210574402
757.0,0.23211472180535297
758.0,0.23229248459642116
759.0,0.23222256134572483
760.0,0.23210143000596892
761.0,0.23231250950319546
762.0,0.23289103064237435
763.0,0.23304786592773052
764.0,0.23308091235286296
765.0,0.23312918946144467
766.0,0.23315083178103363
767.0,0.233047449116357
768.0,0.2328947941970806
769.0,0.23276714567096238
770.0,0.23273782145746588
771.0,0.23274718305186826
772.0,0.23274402447119716
773.0,0.23270222394165763
774.0,0.2327424862830846
775.0,0.2327582451023122
776.0,0.23273911644014272
777.0,0.23278305547439634
778.0,0.23283478251848572
779.0,0.2328663658999663
780.0,0.2328677839709067
781.0,0.232854910341881
782.0,0.23282799153985498
783.0,0.2328319257497214
784.0,0.2328869996516581
785.0,0.23286993993678512
786.0,0.232886815546185
787.0,0.23293196018616147
788.0,0.23293752768661888
789.0,0.2329312174633453
790.0,0.23289319474158549
791.0,0.23284026958283013
792.0,0.2328299160600186
793.0,0.23282039959455042
794.0,0.23281811264592092
795.0,0.23282030764644535
796.0,0.2327873859547733
797.0,0.2327591140998912
798.0,0.2327204680724624
799.0,0.23265604492230813
800.0,0.2326137335991403
801.0,0.23259928001952354
802.0,0.23260835993855744
803.0,0.23262105810597616
804.0,0.23257281015313241
805.0,0.232496629759685
806.0,0.23242581723507766
807.0,0.2323784392718679
808.0,0.23232000592387891
809.0,0.23230735468399083
810.0,0.23235798618886622
811.0,0.2323898071956135
812.0,0.23237606767431138
813.0,0.2323489739673764
814.0,0.23234172257561997
815.0,0.232300166551353
816.0,0.23234738211292963
817.0,0.23239304217657433
818.0,0.23227683157624843
819.0,0.23209687539165688
820.0,0.23203060920241383
821.0,0.23202378798206305
822.0,0.23188072884960348
823.0,0.23183466576428882
824.0,0.23181551781162496
825.0,0.2317649629825527
826.0,0.23169482103318906
827.0,0.23154944422157925
828.0,0.23142557641018482
829.0,0.2313917060235025
830.0,0.2313590947466585
831.0,0.23133697657973748
832.0,0.23127305637608403
833.0,0.2311426091632252
834.0,0.23106309235367317
835.0,0.23102302120810556
836.0,0.23097077740032637
837.0,0.2308534744112035
838.0,0.23071899757417014
839.0,0.23057325284489102
840.0,0.23047970230783366
841.0,0.23051206401790905
842.0,0.23042205286445178
843.0,0.23036554452137603
844.0,0.23036866715063026
845.0,0.23024843150191687
846.0,0.23015478711823503
847.0,0.23011872880110737
848.0,0.23011224241070038
849.0,0.23004311072193526
850.0,0.22998740630372527
851.0,0.22995301831701978
852.0,0.2299083472638458
853.0,0.22976776197781934
854.0,0.2295912530362278
855.0,0.22951528404218446
856.0,0.22961066559082477
857.0,0.22963081657609355
858.0,0.22952386903077543
859.0,0.2293730310587371
860.0,0.22930591364396236
861.0,0.22920422165579715
862.0,0.2291578610073643
863.0,0.2291486251833372
864.0,0.22907204485945418
865.0,0.22899539828127588
866.0,0.22893646805009166
867.0,0.22892940063539544
868.0,0.22901060212534916
869.0,0.22898131358100862
870.0,0.22891253917280935
871.0,0.22886435000675645
872.0,0.22880837002753296
873.0,0.22872842070905453
874.0,0.2286563762374955
875.0,0.22863815478174299
876.0,0.22872610744612004
877.0,0.22874537024816194
878.0,0.22868373746946277
879.0,0.22858711775009743
880.0,0.22849812514218207
881.0,0.22845798775694273
882.0,0.22847325629004775
883.0,0.22851486835710144
884.0,0.22848464566548596
885.0,0.2285905986048968
886.0,0.22863942246031282
887.0,0.22839545815775264
888.0,0.22844254107267978
889.0,0.22852596229252797
890.0,0.2285763350450047
891.0,0.2286555986303746
892.0,0.22871684392105607
893.0,0.22876806641544942
894.0,0.22878062996117007
895.0,0.22872480467998138
896.0,0.22886416380765767
897.0,0.22894219146780215
898.0,0.22885312648930722
899.0,0.22874574505532028
900.0,0.22872302617241322
901.0,0.22878205140540211
902.0,0.22881264418089212
903.0,0.22867300627261927
904.0,0.2288251589395878
905.0,0.2289298826660699
906.0,0.22883915319907708
907.0,0.22880745750064813
908.0,0.2287997077427593
909.0,0.22888085594444285
910.0,0.22903633190512535
911.0,0.2291116565834421
912.0,0.22894181637103744
913.0,0.22889046224030826
914.0,0.22906372507727177
915.0,0.22893492791273018
916.0,0.2287892447201501
917.0,0.22889916199933502
918.0,0.22924162829046527
919.0,0.22930627010567914
920.0,0.2293838331389184
921.0,0.2294287506990756
922.0,0.22936351459697774
923.0,0.2291943661655313
924.0,0.22926525407005519
925.0,0.22942409214108095
926.0,0.22951179632075452
927.0,0.22973765634736065
928.0,0.22951363655729112
929.0,0.22901120693637872
930.0,0.22863906017320312
931.0,0.22865336016198873
932.0,0.22838713682347056
933.0,0.22775756478795614
934.0,0.22710233045006453
935.0,0.22698003454363364
936.0,0.22712857337602668
937.0,0.2276691723112044
938.0,0.22845619203138146
939.0,0.22867764340976443
940.0,0.22899485673172917
941.0,0.22898393773620598
942.0,0.22859429080032043
943.0,0.22923984878915682
944.0,0.22920923857899966
945.0,0.22868970105432976
946.0,0.22839504265568522
947.0,0.22869842021435532
948.0,0.22899186344936798
949.0,0.22917341726828788
950.0,0.22936845273193993
951.0,0.22984904455184488
952.0,0.22921026187121046
953.0,0.22860800243074264
954.0,0.22881271448644344
955.0,0.2287040365611856
956.0,0.22920485979034821
957.0,0.22965581544409816
958.0,0.22973754479330402
959.0,0.23017529681102503
960.0,0.22998247736147062
961.0,0.22956009000673447
962.0,0.22941235682020095
963.0,0.22971481070310618
964.0,0.229962249955302
965.0,0.2304635591741849
966.0,0.2310749647134491
967.0,0.23112048449359796
968.0,0.23157789241046536
969.0,0.23203885392842705
970.0,0.23219690149536362
971.0,0.2321127376233363
972.0,0.2322211939417326
973.0,0.23231581726921058
974.0,0.23218551110226843
975.0,0.2318294409496983
976.0,0.2321450134377667
977.0,0.23204614379234345
978.0,0.23166937607084834
979.0,0.23198029354651153
980.0,0.23271646020604575
981.0,0.23234602395681897
982.0,0.2318307687480585
983.0,0.23267502538976884
984.0,0.23241217784686777
985.0,0.23192471251637561
986.0,0.23181461642221204
987.0,0.2322027126531096
988.0,0.23229201341781408
989.0,0.23201328325530501
990.0,0.23211074981343752
991.0,0.23282167608068327
992.0,0.23247744943849616
993.0,0.23279046309046902
994.0,0.23312671904254564
995.0,0.23283929320541077
996.0,0.23243215122880856
997.0,0.2323138602956074
998.0,0.23215250672511412
999.0,0.23181395110062336
1000.0,0.23163281810484482
1001.0,0.23538855517598883
1002.0,0.23541505102228366
1003.0,0.23544531756819534
1004.0,0.23565955936300723
1005.0,0.23580738838309664
1006.0,0.2358756295130953
1007.0,0.23591130490397796
1008.0,0.23592010716036318
1009.0,0.23613131237501855
1010.0,0.2361595309834809
1011.0,0.23619285309270988
1012.0,0.2362483638218961
1013.0,0.23632240323078035
1014.0,0.23625298564187316
1015.0,0.23627832579572894
1016.0,0.23639950393834522
1017.0,0.23671148260170097
1018.0,0.23672847859458707
1019.0,0.23666449748294216
1020.0,0.23657150504643978
1021.0,0.2362937485085384
1022.0,0.2359574632659199
1023.0,0.23603509109991594
1024.0,0.23632874877581145
1025.0,0.23628880802907704
1026.0,0.2363192300430149
1027.0,0.23612967437966167
1028.0,0.236006115550043
1029.0,0.23623313622540917
1030.0,0.23622323245713134
1031.0,0.23612132968248542
1032.0,0.2358533851135869
1033.0,0.23572230759180632
1034.0,0.23546360213166784
1035.0,0.2355384968284869
1036.0,0.23588228982883208
1037.0,0.23619524252045768
1038.0,0.23656734508713925
1039.0,0.2364848052720071
1040.0,0.23628311371560215
1041.0,0.23628804611431556
1042.0,0.2361285239328164
1043.0,0.2360692905164288
1044.0,0.23607795964495346
1045.0,0.23599132685270272
1046.0,0.23590965494678928
1047.0,0.23574811505167115
1048.0,0.23571221606908585
1049.0,0.2357989692614497
1050.0,0.23580110640264743
1051.0,0.2358574834287039
1052.0,0.23586935039767526
1053.0,0.2356203151130878
1054.0,0.23529431140660018
1055.0,0.23532014471089813
1056.0,0.2356216928796139
1057.0,0.2360126845317052
1058.0,0.23624062728020534
1059.0,0.23603661353074976
1060.0,0.23560984197787244
1061.0,0.23539613569994644
1062.0,0.23550706016482822
1063.0,0.23550592308267748
1064.0,0.23565928556035168
1065.0,0.2357241363749936
1066.0,0.2355175163872019
1067.0,0.23506650044693655
1068.0,0.2348334153132736
1069.0,0.23470698825325234
1070.0,0.23470325656420019
1071.0,0.23486950810185103
1072.0,0.2349449115502989
1073.0,0.23496126930406092
1074.0,0.23490089224540012
1075.0,0.23492797410866584
1076.0,0.23504040963576403
1077.0,0.2351081402779744
1078.0,0.23513522493992925
1079.0,0.23521928871974176
1080.0,0.2352240764995317
1081.0,0.23506198979021045
1082.0,0.23495728848209788
1083.0,0.2349321401217036
1084.0,0.2347674818835265
1085.0,0.23464377460660416
1086.0,0.23449311249855093
1087.0,0.2344184602369392
1088.0,0.234541084264175
1089.0,0.23471644780748474
1090.0,0.23496307070661018
1091.0,0.23505269338869908
1092.0,0.2350516712368306
1093.0,0.2350043656882312
1094.0,0.23501145067999188
1095.0,0.23498584532155947
1096.0,0.23517026444215727
1097.0,0.2352321738401241
1098.0,0.23520640191408976
1099.0,0.23512467471740356
1100.0,0.23494398821051451
1101.0,0.23495132582676176
1102.0,0.23499338848224932
1103.0,0.23508099864540366
1104.0,0.23532426391998282
1105.0,0.2353863467031755
1106.0,0.23540323427913812
1107.0,0.2355132186077977
1108.0,0.23539485803495938
1109.0,0.23520938410578354
1110.0,0.2351977250820102
1111.0,0.23514934188469117
1112.0,0.23508860229378725
1113.0,0.23494171840150024
1114.0,0.2348938394565215
1115.0,0.23491788254032506
1116.0,0.23486235297464259
1117.0,0.23500267743581016
1118.0,0.23520314679337598
1119.0,0.23513893647642017
1120.0,0.23499958378727528
