Wavelength (nm),Reflectance
350.0,0.10905462442693913
351.0,0.10955071833399888
352.0,0.11000749723505472
353.0,0.11036695186090688
354.0,0.11096827938253917
355.0,0.11153841624778485
356.0,0.11191981821333506
357.0,0.11215336780673921
358.0,0.11284231891077987
359.0,0.11368324568945522
360.0,0.11434484683498818
361.0,0.11470068604261062
362.0,0.1149498287347466
363.0,0.11527794644294909
364.0,0.11583470551762837
365.0,0.11676111842541823
366.0,0.1175819932881185
367.0,0.11824656512205439
368.0,0.11883429965699994
369.0,0.11917324493753581
370.0,0.1199104976295396
371.0,0.12087406359514917
372.0,0.12144277575852627
373.0,0.12239995687036326
374.0,0.12351412454218119
375.0,0.12445378328874854
376.0,0.12495901525077298
377.0,0.1257385947695355
378.0,0.1264642188020334
379.0,0.12699753603885428
380.0,0.12797558607063614
381.0,0.1290718672602967
382.0,0.13016245270159293
383.0,0.1311762010997194
384.0,0.1320582283569706
385.0,0.13315078414374928
386.0,0.1341759122877554
387.0,0.13473024970624814
388.0,0.13566871072455222
389.0,0.13665518440066926
390.0,0.13744389044555338
391.0,0.1379936534272002
392.0,0.13895736612633341
393.0,0.13982873069694926
394.0,0.14041352427526563
395.0,0.1412710947766984
396.0,0.14235599059959145
397.0,0.14347714560632174
398.0,0.14441229333924774
399.0,0.14490509509951924
400.0,0.14553588852242771
401.0,0.14620927635837536
402.0,0.14667230032190628
403.0,0.1473352991464935
404.0,0.14813235579702902
405.0,0.14891254356302736
406.0,0.14950524614715482
407.0,0.15014845974940946
408.0,0.1508368819629395
409.0,0.15154676176238638
410.0,0.15229151788660425
411.0,0.15309099268156537
412.0,0.15383306949509998
413.0,0.15444300553954868
414.0,0.1550517296332126
415.0,0.15577960776130056
416.0,0.1565417094040652
417.0,0.15719027484205367
418.0,0.15795949425750047
419.0,0.15876778864500238
420.0,0.15954344713080001
421.0,0.16026538155690231
422.0,0.16107139266565987
423.0,0.16187365823695296
424.0,0.16262122894517145
425.0,0.16343776263296106
426.0,0.16430051640896798
427.0,0.16515058448093525
428.0,0.1659469832281521
429.0,0.16681217959793815
430.0,0.16774135142699192
431.0,0.16871058276536388
432.0,0.16968762193276588
433.0,0.17066403242677955
434.0,0.1715836427568273
435.0,0.1724230709033407
436.0,0.17320167351139132
437.0,0.17406425206527967
438.0,0.17490583445912683
439.0,0.17564719720191072
440.0,0.1765150744598748
441.0,0.17737583291859274
442.0,0.17818923797756137
443.0,0.1789622875341628
444.0,0.17964241966604208
445.0,0.18031983801710622
446.0,0.18104158799466724
447.0,0.18178734883156247
448.0,0.18238808944104454
449.0,0.18300008452099553
450.0,0.18371621230653543
451.0,0.18429157667955645
452.0,0.18485868143557943
453.0,0.18543336210197756
454.0,0.1859846984572284
455.0,0.1864870412476693
456.0,0.18703142465685196
457.0,0.18761464829533997
458.0,0.18814096847756462
459.0,0.18862515335476515
460.0,0.18913169805060864
461.0,0.18967637204998464
462.0,0.19015558551957956
463.0,0.19057452278385367
464.0,0.19099402336485244
465.0,0.19147006673234712
466.0,0.19190964187328485
467.0,0.19240327546786376
468.0,0.19292588030704289
469.0,0.19336434347080272
470.0,0.19379766639436372
471.0,0.19425679632114715
472.0,0.19474828695433813
473.0,0.19524841452465821
474.0,0.19574695999868724
475.0,0.19623072728276272
476.0,0.19670406340968108
477.0,0.19722485828131378
478.0,0.19780170542692363
479.0,0.1983951379824074
480.0,0.1989396709955958
481.0,0.19944517012459198
482.0,0.20001310260126143
483.0,0.20065323104161145
484.0,0.20119795867556864
485.0,0.2017317441634124
486.0,0.20233615622241946
487.0,0.20304687454686576
488.0,0.20373053733519367
489.0,0.20440722043319604
490.0,0.20506452741685313
491.0,0.20568410723880223
492.0,0.20631801825233245
493.0,0.2069842625056539
494.0,0.20768062538230228
495.0,0.20838534418718394
496.0,0.20903951683044056
497.0,0.20971483865072135
498.0,0.21047146377068324
499.0,0.21117757384102412
500.0,0.21185078449707687
501.0,0.21253798982009628
502.0,0.2132945610905738
503.0,0.214082520715538
504.0,0.21482486180151952
505.0,0.21550639368862146
506.0,0.21620973454044498
507.0,0.2169289120552311
508.0,0.217618473723829
509.0,0.21826585379690122
510.0,0.2190062803314426
511.0,0.21979594487698748
512.0,0.2205783817342974
513.0,0.22129563543065894
514.0,0.22193064443344757
515.0,0.22261332755607782
516.0,0.2233881749198186
517.0,0.22412159635731363
518.0,0.22482216832810337
519.0,0.22556630340321665
520.0,0.2263827107977781
521.0,0.22707810242870674
522.0,0.2277270826318397
523.0,0.22840261685805227
524.0,0.22915288187765254
525.0,0.2298701070214456
526.0,0.23054984583059576
527.0,0.23122893907734993
528.0,0.23199582680199804
529.0,0.23277478512188765
530.0,0.2335053051488982
531.0,0.23418250746051
532.0,0.234923518956331
533.0,0.2357223980601803
534.0,0.23654071323446013
535.0,0.23732836582365602
536.0,0.23811201922588804
537.0,0.23890314753082073
538.0,0.2397063442806278
539.0,0.240489563096414
540.0,0.24129679854598515
541.0,0.24212771824521764
542.0,0.2429576064924096
543.0,0.24371570094539188
544.0,0.24446389810033603
545.0,0.24522710350496432
546.0,0.24598614152606887
547.0,0.2467792461135336
548.0,0.2475960717986457
549.0,0.24842521580564883
550.0,0.24927781759879605
551.0,0.2501383040750652
552.0,0.251017174327754
553.0,0.25192721345534125
554.0,0.25284419896551286
555.0,0.2538014943100928
556.0,0.25477422546962003
557.0,0.25567428350600774
558.0,0.25659309620735454
559.0,0.2575398179597312
560.0,0.2584917457556273
561.0,0.25941791596764413
562.0,0.2602776211512673
563.0,0.26108042447078716
564.0,0.2618649102232557
565.0,0.2626664435617298
566.0,0.26346815552087766
567.0,0.2642810818429456
568.0,0.26515893172447363
569.0,0.2659700455808306
570.0,0.26680810254508325
571.0,0.26776248266363795
572.0,0.26876294094772085
573.0,0.2696451837365934
574.0,0.2704186766850708
575.0,0.2711983309136858
576.0,0.27199049872593456
577.0,0.27278124571652695
578.0,0.27355506691607057
579.0,0.2743051915451181
580.0,0.27503064428971796
581.0,0.27573660116741744
582.0,0.2764370508287223
583.0,0.27716091374257523
584.0,0.277892062607492
585.0,0.2785825337624713
586.0,0.27917149067100777
587.0,0.2797694050606023
588.0,0.2802901809487147
589.0,0.28074609217294494
590.0,0.2813754757046023
591.0,0.28200990696954586
592.0,0.2825835041784933
593.0,0.28309549900116865
594.0,0.2835685827363842
595.0,0.2840361944301005
596.0,0.2845251000793286
597.0,0.2850547432375157
598.0,0.28556981537305537
599.0,0.28604974318250154
600.0,0.2865082862062332
601.0,0.2870322089230299
602.0,0.2874918991628655
603.0,0.2878977332171903
604.0,0.2883052227519401
605.0,0.2886822651068487
606.0,0.28898825505684655
607.0,0.2892763587076241
608.0,0.2896892432462637
609.0,0.29007286652679504
610.0,0.29045480313826655
611.0,0.290842153087861
612.0,0.2910727862963787
613.0,0.2913765490758727
614.0,0.2917636862125565
615.0,0.29212947465023004
616.0,0.29239989268424
617.0,0.29268112112234773
618.0,0.29301684463277555
619.0,0.2933591986756322
620.0,0.29366532117044725
621.0,0.29395631790488924
622.0,0.2942529093562845
623.0,0.29451778925148386
624.0,0.2947908797975736
625.0,0.29509556687406685
626.0,0.2954293484269197
627.0,0.2956765788918133
628.0,0.2959174216647389
629.0,0.2961975876860836
630.0,0.29647431765400145
631.0,0.29677022119848745
632.0,0.2970929435621962
633.0,0.2974279078531169
634.0,0.29769968044778194
635.0,0.2979782399346096
636.0,0.2982860696949951
637.0,0.2986058740935617
638.0,0.29890958655548155
639.0,0.2992014155885041
640.0,0.2994791990648258
641.0,0.29970516562393495
642.0,0.3000389710580593
643.0,0.30039133186774697
644.0,0.30063833863729894
645.0,0.3008661512683928
646.0,0.3010913905241927
647.0,0.30131135252596714
648.0,0.3015135170106517
649.0,0.3017577937678208
650.0,0.30204032636428346
651.0,0.3023433767478483
652.0,0.3026579029912638
653.0,0.3029943694894114
654.0,0.30328394872893827
655.0,0.3034694927592519
656.0,0.30364745358670553
657.0,0.303971567281998
658.0,0.3043725321028922
659.0,0.30465856865461627
660.0,0.3049257394772144
661.0,0.3051886777351921
662.0,0.3054421366283868
663.0,0.30567559488817175
664.0,0.30595349894032503
665.0,0.3062654977590832
666.0,0.3065649892335835
667.0,0.3067798322101029
668.0,0.3070050831243746
669.0,0.30727835339516246
670.0,0.3075727636960922
671.0,0.30787669214342656
672.0,0.3081431410574172
673.0,0.30836170961074977
674.0,0.30862856464993393
675.0,0.30888972005339077
676.0,0.309128354876093
677.0,0.30935043184849265
678.0,0.3096126227389834
679.0,0.30989845346066536
680.0,0.310167711729963
681.0,0.31036718348503883
682.0,0.3105958468715498
683.0,0.31083170893021883
684.0,0.3110558568693201
685.0,0.3113669246632462
686.0,0.3113349671709697
687.0,0.31104630674973144
688.0,0.3109576335095937
689.0,0.31141637293973495
690.0,0.3119343729972434
691.0,0.31233279677258585
692.0,0.31272892480594455
693.0,0.3128684125843891
694.0,0.3130199480011877
695.0,0.3133788128936487
696.0,0.31375915097494156
697.0,0.3141256785969989
698.0,0.31438491151381354
699.0,0.314483537611509
700.0,0.3147231973889413
701.0,0.31497912723608607
702.0,0.3152250636679474
703.0,0.31555910445175916
704.0,0.31590992520244454
705.0,0.31620770866124304
706.0,0.3164331459517749
707.0,0.31665571420778305
708.0,0.31696379673600894
709.0,0.3172780115406254
710.0,0.3174916619716136
711.0,0.31777158959760143
712.0,0.31804637857647
713.0,0.3182811017391353
714.0,0.3184878272610091
715.0,0.31867535980951195
716.0,0.318713413570537
717.0,0.3185721802467932
718.0,0.31852647843637993
719.0,0.3187224789038386
720.0,0.3192106807771337
721.0,0.31984893428302824
722.0,0.32031385055514294
723.0,0.32044075709121955
724.0,0.320401293324215
725.0,0.32063119883509617
726.0,0.3209820925465667
727.0,0.32135179258096774
728.0,0.3216759996181153
729.0,0.32191637654510175
730.0,0.32224013170076127
731.0,0.32264991604932447
732.0,0.3230990565269142
733.0,0.3236213714853091
734.0,0.3239800423952872
735.0,0.3242181489926096
736.0,0.3245303205597163
737.0,0.32485503508290037
738.0,0.3251614928044518
739.0,0.3254720767626849
740.0,0.32586927326547666
741.0,0.32622081998718283
742.0,0.3265223218979279
743.0,0.32680582211224424
744.0,0.3271162651275621
745.0,0.3274007005429019
746.0,0.3276971381659499
747.0,0.32805906349266256
748.0,0.3283060687821249
749.0,0.3286039975605056
750.0,0.32897925990251337
751.0,0.3292743897113497
752.0,0.32961572365365555
753.0,0.33000040394293667
754.0,0.3303808305221352
755.0,0.3306638147725487
756.0,0.33094092220906085
757.0,0.33124639822331997
758.0,0.33148820298992343
759.0,0.3308072895337546
760.0,0.3290133888542971
761.0,0.3268022678452143
762.0,0.32826250917049565
763.0,0.3290687955792146
764.0,0.3300643579202985
765.0,0.33152838818073715
766.0,0.33296908163867295
767.0,0.3338931153042984
768.0,0.33444988679179455
769.0,0.33481283855205507
770.0,0.33514798812807955
771.0,0.3354847438233947
772.0,0.3358202590801743
773.0,0.336133687234759
774.0,0.3364098683551673
775.0,0.33669798077428326
776.0,0.33701812758478206
777.0,0.3373578090364974
778.0,0.33767619510997604
779.0,0.3379669153109113
780.0,0.3382304530255712
781.0,0.33846894681139306
782.0,0.33868002082929327
783.0,0.3389234573580066
784.0,0.3392403777923311
785.0,0.3395409708412996
786.0,0.33979447417858577
787.0,0.3400030665379952
788.0,0.340196084890676
789.0,0.3404280099492981
790.0,0.34071745339540827
791.0,0.34102723591119793
792.0,0.3412718341385493
793.0,0.34150398447771646
794.0,0.3417741043071393
795.0,0.34206084461742015
796.0,0.34219646208701143
797.0,0.3423760326814
798.0,0.34261762136766877
799.0,0.342874443299631
800.0,0.343071767808078
801.0,0.34331186651881934
802.0,0.3435473799774273
803.0,0.34368142315490885
804.0,0.34389162970063075
805.0,0.34418210189634757
806.0,0.3445025339716275
807.0,0.3447706063215022
808.0,0.34492966920565077
809.0,0.3450543014865999
810.0,0.34521112727880815
811.0,0.3454101961319139
812.0,0.34547141626366307
813.0,0.34539926765407303
814.0,0.3452903030088067
815.0,0.3453350698663836
816.0,0.3454705467819581
817.0,0.34567063677410115
818.0,0.3459277940853072
819.0,0.34625219076245023
820.0,0.3466201492032965
821.0,0.3468510265902468
822.0,0.34671825359862757
823.0,0.3467129368557518
824.0,0.3471132333655317
825.0,0.34771111235145663
826.0,0.34790905079757384
827.0,0.3479340323361665
828.0,0.3479287110528299
829.0,0.34800257282200453
830.0,0.34819815954780786
831.0,0.34837962956868523
832.0,0.34856039396844163
833.0,0.34878245499374544
834.0,0.3490180537232336
835.0,0.3491987614801385
836.0,0.3493722275516277
837.0,0.34960916661367947
838.0,0.34977725105620305
839.0,0.34994070515551334
840.0,0.3500933110202079
841.0,0.3501792176226993
842.0,0.3502850750167654
843.0,0.3504179438805585
844.0,0.35059109370136066
845.0,0.35082957934690184
846.0,0.35098751437393005
847.0,0.35111982577658957
848.0,0.35126769787980994
849.0,0.3513606485592682
850.0,0.35156061406824657
851.0,0.3518200048662258
852.0,0.35199906347697224
853.0,0.3518521380763241
854.0,0.3517836750470427
855.0,0.3520011368915034
856.0,0.35244739502441386
857.0,0.35257242196352134
858.0,0.35261376524071936
859.0,0.35266208782782066
860.0,0.35273288806881303
861.0,0.35294768192639175
862.0,0.3531745271515853
863.0,0.3533425436509519
864.0,0.3534471097611067
865.0,0.3534046529930731
866.0,0.3533256197034802
867.0,0.35339937654941855
868.0,0.35380400265230766
869.0,0.35405159116992446
870.0,0.35414928802288637
871.0,0.3541689410897744
872.0,0.3541383074716607
873.0,0.35426388722788454
874.0,0.35454788310796154
875.0,0.3548512931471753
876.0,0.3548722219001744
877.0,0.35488513629684787
878.0,0.3549452975297165
879.0,0.35506462889961865
880.0,0.3553417488890905
881.0,0.3555565666477946
882.0,0.35566578710755564
883.0,0.35573640181184174
884.0,0.35593736611618104
885.0,0.3561526049610811
886.0,0.3563227790907304
887.0,0.3564311615313492
888.0,0.3564985848453
889.0,0.3565549838153533
890.0,0.3567213755333712
891.0,0.3570666836209306
892.0,0.35702897476832945
893.0,0.3568622989603552
894.0,0.35668268723414837
895.0,0.3564590628600377
896.0,0.35639960857262815
897.0,0.35641212229940367
898.0,0.35636420651640127
899.0,0.3561913350086606
900.0,0.35643403017931696
901.0,0.3568055119043953
902.0,0.3572033119379297
903.0,0.3578308126025034
904.0,0.35822871576706805
905.0,0.3582471520187886
906.0,0.35801241315998517
907.0,0.3579315935541642
908.0,0.35779203434039364
909.0,0.3577884221174594
910.0,0.3579938326244502
911.0,0.3581693563726224
912.0,0.3582419336146623
913.0,0.3582404421539856
914.0,0.3582662948114387
915.0,0.35847715535399666
916.0,0.35884010295616886
917.0,0.3592837122520404
918.0,0.35974684098366316
919.0,0.3602191454626221
920.0,0.36050491476885
921.0,0.36064643409795144
922.0,0.36081820957628025
923.0,0.3613222889896569
924.0,0.36160363049297284
925.0,0.3615078916331575
926.0,0.36107574688996164
927.0,0.3605025911749591
928.0,0.3596699185748829
929.0,0.3586867479505002
930.0,0.35752656152546175
931.0,0.3554944821350233
932.0,0.3539883861835234
933.0,0.3526358188349134
934.0,0.35081568924865936
935.0,0.34978813525134317
936.0,0.3502684325375195
937.0,0.3522395197690158
938.0,0.35477597615037987
939.0,0.3560354335907758
940.0,0.35655057240934523
941.0,0.356698722224743
942.0,0.3566086579917755
943.0,0.35586524170412603
944.0,0.35565860277166517
945.0,0.35531084052116696
946.0,0.35463685841714454
947.0,0.3558348250393376
948.0,0.35708143741964227
949.0,0.3574347242856734
950.0,0.3570829721196056
951.0,0.3577707379563974
952.0,0.3582229157400112
953.0,0.35855884111935415
954.0,0.3588924794044538
955.0,0.3587480462028566
956.0,0.35932843341935655
957.0,0.360596122140735
958.0,0.36177007993125654
959.0,0.36162621571390174
960.0,0.3622523418318117
961.0,0.3629415989497953
962.0,0.3631564916582735
963.0,0.36340024158762707
964.0,0.36395150062615894
965.0,0.3654703672320126
966.0,0.3673467230358231
967.0,0.36776607259849686
968.0,0.36799031342607535
969.0,0.36825347051737645
970.0,0.368700750094502
971.0,0.36938734988634353
972.0,0.3691525230465095
973.0,0.36928481709176764
974.0,0.36999563812064146
975.0,0.3701956338736405
976.0,0.36912232634394
977.0,0.3688488822570371
978.0,0.3697417690421319
979.0,0.3706676190357407
980.0,0.371088659187867
981.0,0.370902137792971
982.0,0.3710555632075709
983.0,0.37230147657081636
984.0,0.37239509936364806
985.0,0.37225652640796814
986.0,0.372334290001595
987.0,0.3727346785852501
988.0,0.37340134837602434
989.0,0.3732544819009391
990.0,0.3729103282205051
991.0,0.37308014559075126
992.0,0.3731065490124131
993.0,0.37416893560462
994.0,0.3746550607314097
995.0,0.3737090307200959
996.0,0.373154027683553
997.0,0.37401247466134546
998.0,0.3744070993666216
999.0,0.37385272964175764
1000.0,0.37429300084265044
1001.0,0.3827596514866749
1002.0,0.3827808996204477
1003.0,0.3829780752896411
1004.0,0.38325810521610054
1005.0,0.3836718022006575
1006.0,0.38436708663814845
1007.0,0.384727888056815
1008.0,0.38508071182468817
1009.0,0.3853320334558955
1010.0,0.38528599394701
1011.0,0.38534107127395206
1012.0,0.38557393932348266
1013.0,0.3856677155241103
1014.0,0.3853937123107007
1015.0,0.3854348484209185
1016.0,0.3856102101284948
1017.0,0.3857811940773312
1018.0,0.38596981850689976
1019.0,0.38654570054278065
1020.0,0.38682105940727346
1021.0,0.38691921529369705
1022.0,0.3869182909910252
1023.0,0.38725090702345566
1024.0,0.3874907052805457
1025.0,0.38756426830814117
1026.0,0.3880368511816646
1027.0,0.38833701182524105
1028.0,0.38818541829882264
1029.0,0.38782968152970776
1030.0,0.38776000925376203
1031.0,0.387904172555506
1032.0,0.3881807588981942
1033.0,0.3884087326534581
1034.0,0.38915014446392343
1035.0,0.38933132177482427
1036.0,0.38917086873938794
1037.0,0.3887562029930267
1038.0,0.3887391152437285
1039.0,0.3886490518820481
1040.0,0.3887049256577618
1041.0,0.3893942925297448
1042.0,0.3898030550665889
1043.0,0.389954720504741
1044.0,0.389871533551213
1045.0,0.389711838993624
1046.0,0.38982410523493205
1047.0,0.39002947989680015
1048.0,0.3901075011234866
1049.0,0.3904347409165119
1050.0,0.39055183878471933
1051.0,0.3903250043400743
1052.0,0.39045113752353616
1053.0,0.3908373779893229
1054.0,0.3910151675654937
1055.0,0.3909657103385696
1056.0,0.390923052098177
1057.0,0.39107249094146734
1058.0,0.3909122673807165
1059.0,0.3907624761918328
1060.0,0.3911044489305355
1061.0,0.3913342643266489
1062.0,0.39123451348878163
1063.0,0.3912669073912831
1064.0,0.3915260487332156
1065.0,0.39157228403053757
1066.0,0.3913136623064455
1067.0,0.391638110806995
1068.0,0.39205274020026254
1069.0,0.3920975259148714
1070.0,0.3921466041697546
1071.0,0.3920470857701771
1072.0,0.39209701686469156
1073.0,0.39245279310910003
1074.0,0.3925817692001414
1075.0,0.3925788869348103
1076.0,0.3925775540092276
1077.0,0.3925182266412249
1078.0,0.3925335159829254
1079.0,0.39262774531771744
1080.0,0.3928791353366457
1081.0,0.39298703031639437
1082.0,0.3929707842726546
1083.0,0.3933088063217941
1084.0,0.3935762124444006
1085.0,0.39375216871073504
1086.0,0.39392878862946995
1087.0,0.3937811915449705
1088.0,0.3938696388841501
1089.0,0.3940815653558697
1090.0,0.3942347855696121
1091.0,0.3943106241885846
1092.0,0.3943105612904666
1093.0,0.39429418106392455
1094.0,0.39433911554391826
1095.0,0.3944209536819539
1096.0,0.3946927661410518
1097.0,0.39471758112473265
1098.0,0.39473318810673047
1099.0,0.3948817688308581
1100.0,0.3949703376596762
1101.0,0.39521575507989265
1102.0,0.39566726814871805
1103.0,0.39619118970482836
1104.0,0.3964558685808787
1105.0,0.39663904601988265
1106.0,0.3966992610147881
1107.0,0.39645785195108124
1108.0,0.3963908736143846
1109.0,0.3962681456923096
1110.0,0.39587421939029643
1111.0,0.39551174011574275
1112.0,0.39501338910651473
1113.0,0.39448842980521254
1114.0,0.394258804973336
1115.0,0.39418486425560295
1116.0,0.39403086463925213
1117.0,0.3937369301723814
1118.0,0.39335608049460113
1119.0,0.39283422453126127
1120.0,0.3927513541897888
1121.0,0.392976559288392
1122.0,0.392460098567963
1123.0,0.39191065990991475
1124.0,0.3918547528847763
1125.0,0.39198902335087593
1126.0,0.392234590937952
1127.0,0.39300420907419314
1128.0,0.3936718804007766
