Wavelength (nm),Reflectance
350.0,0.1326656249098186
351.0,0.13305244874362826
352.0,0.13347321182572294
353.0,0.13368568181238402
354.0,0.1342714963149429
355.0,0.13478089560722872
356.0,0.1350551453958442
357.0,0.13529344841376564
358.0,0.13568917519572637
359.0,0.13614804263952981
360.0,0.13663790653944627
361.0,0.13728619049271104
362.0,0.13796043426047952
363.0,0.13852612820858487
364.0,0.1389298624347608
365.0,0.13928489115018053
366.0,0.13960093586851952
367.0,0.1400082401223171
368.0,0.14061006043850047
369.0,0.14122653757463446
370.0,0.14181159377676528
371.0,0.14240859713981122
372.0,0.143090519129188
373.0,0.14368243081121285
374.0,0.14426757196918183
375.0,0.14493688754679188
376.0,0.1457428173974939
377.0,0.14637164269810238
378.0,0.1470243832868224
379.0,0.14780829490424902
380.0,0.1484399861553091
381.0,0.1489532501633561
382.0,0.1495070829491782
383.0,0.15026289973278775
384.0,0.15124702872937135
385.0,0.15209714238529087
386.0,0.15276152893438383
387.0,0.1534125320511806
388.0,0.15445965071845524
389.0,0.15515270153215535
390.0,0.1554581995314974
391.0,0.15601831144470596
392.0,0.15676278414501485
393.0,0.15740289296331197
394.0,0.15782366209801818
395.0,0.15822055808105712
396.0,0.15905850519797157
397.0,0.15993932558505
398.0,0.1605099203485095
399.0,0.1610252979002287
400.0,0.16160191126806864
401.0,0.1621340465138887
402.0,0.16250468923824896
403.0,0.16301786975245205
404.0,0.16353749932650558
405.0,0.16403661820912943
406.0,0.16460039259775405
407.0,0.16521463282057905
408.0,0.16581919364033615
409.0,0.16636553660282402
410.0,0.16683524914734454
411.0,0.16735955144454684
412.0,0.16787104466699573
413.0,0.16832126771527275
414.0,0.16891241942976656
415.0,0.16947246814123768
416.0,0.17001407530486226
417.0,0.17062929424963347
418.0,0.17123619216586192
419.0,0.17177659605088746
420.0,0.17227434767373848
421.0,0.17283291429186198
422.0,0.1734169949480041
423.0,0.17409061864964487
424.0,0.1748394224099875
425.0,0.17542676408185248
426.0,0.17606069193629298
427.0,0.1766931269045841
428.0,0.17724721687345438
429.0,0.17795672507642332
430.0,0.1786973078147788
431.0,0.1793935444367101
432.0,0.1800384038146046
433.0,0.18074958224947965
434.0,0.18141710233540276
435.0,0.1820198458525466
436.0,0.18269767798597586
437.0,0.18336676037961522
438.0,0.18401577834946511
439.0,0.18465318858619123
440.0,0.18529720821866183
441.0,0.18593857404057054
442.0,0.1865639873811357
443.0,0.18715827964133575
444.0,0.18768775063774198
445.0,0.18823795410724875
446.0,0.18882450179223578
447.0,0.1893732779477099
448.0,0.18990328564786832
449.0,0.19043515367438602
450.0,0.19097677892184378
451.0,0.19150921989269887
452.0,0.19200063774608211
453.0,0.19245764813544014
454.0,0.1929116605026999
455.0,0.19342167918280567
456.0,0.19388440749894792
457.0,0.19429296012723757
458.0,0.19473612034920149
459.0,0.1951042948312982
460.0,0.19551207272188117
461.0,0.19599473173210324
462.0,0.19633478876305674
463.0,0.19674217342029093
464.0,0.19716395798167635
465.0,0.19750507624732114
466.0,0.19793059666519008
467.0,0.1982967410225233
468.0,0.19861804250378334
469.0,0.19903109003793568
470.0,0.19937491573727711
471.0,0.19976030106027262
472.0,0.20022005741862323
473.0,0.20058343181378152
474.0,0.20090442754038737
475.0,0.20125476660268887
476.0,0.20167277547376516
477.0,0.20202527898163727
478.0,0.20243078925286792
479.0,0.20286800342628214
480.0,0.20323194240618309
481.0,0.20364537134127056
482.0,0.20409097685569097
483.0,0.20453676802619983
484.0,0.20494740665660505
485.0,0.20541208028431876
486.0,0.2058723187760523
487.0,0.20628485973553282
488.0,0.20685983693274806
489.0,0.2073631049430806
490.0,0.20778720345692597
491.0,0.20826902591094182
492.0,0.20874242400691972
493.0,0.20919862825902305
494.0,0.2096580168096826
495.0,0.21017613551371392
496.0,0.2106920006267373
497.0,0.21119078989353762
498.0,0.2116794171868725
499.0,0.21218056154110126
500.0,0.21267506016629842
501.0,0.21317396567674715
502.0,0.21370084874031703
503.0,0.2142053561721533
504.0,0.21473094360095482
505.0,0.21527494663702434
506.0,0.2157524965515291
507.0,0.21624470036261606
508.0,0.2167631226591906
509.0,0.21729419100875258
510.0,0.21780557170077894
511.0,0.21830901398045446
512.0,0.21881420383213995
513.0,0.21932988694275377
514.0,0.21986596778820094
515.0,0.22040294465779778
516.0,0.22093307424028866
517.0,0.22147106994554502
518.0,0.22204209855821
519.0,0.22261112670367797
520.0,0.22313987322438
521.0,0.22366058100831487
522.0,0.22418268830052263
523.0,0.2247255431890494
524.0,0.22530498496632392
525.0,0.22586867942148595
526.0,0.22642804808094297
527.0,0.22700069543347973
528.0,0.2276047454570765
529.0,0.2282044950725118
530.0,0.22881817241345087
531.0,0.229470098584856
532.0,0.2300884550797512
533.0,0.23071864316847304
534.0,0.23139333267721143
535.0,0.23212811669913208
536.0,0.2328449748414502
537.0,0.23353762409059706
538.0,0.23424172410886052
539.0,0.23503325099416725
540.0,0.2357891023214573
541.0,0.23654868131318385
542.0,0.23737653251274626
543.0,0.23814912000397978
544.0,0.23890934406894443
545.0,0.23970422339351735
546.0,0.24056225941637466
547.0,0.24137570953630658
548.0,0.24221635239593983
549.0,0.24313951052661298
550.0,0.24409353583968313
551.0,0.2450512638462305
552.0,0.24604993963051475
553.0,0.247135803096185
554.0,0.2482514234074373
555.0,0.2493961983549892
556.0,0.2505544704539529
557.0,0.2516930120744437
558.0,0.2529061272915637
559.0,0.2541073402535781
560.0,0.2552238615096839
561.0,0.2563537904049311
562.0,0.2574396171202082
563.0,0.2585035554175316
564.0,0.25959386783022564
565.0,0.2606535247899448
566.0,0.2617590128455136
567.0,0.2629191869625943
568.0,0.26404504420487646
569.0,0.2652561985572047
570.0,0.26650927492560966
571.0,0.267737943860466
572.0,0.2689951123821562
573.0,0.2701699576167785
574.0,0.2712617102969813
575.0,0.27234073427993566
576.0,0.27345810338827886
577.0,0.27452677257203095
578.0,0.2755164599768789
579.0,0.2765158013364276
580.0,0.27749327872004287
581.0,0.2784489848069302
582.0,0.2794023766115252
583.0,0.28040697744873566
584.0,0.28139767232715485
585.0,0.2823544593198127
586.0,0.2832838775253967
587.0,0.2841427049156893
588.0,0.2849511390008424
589.0,0.2857482542225655
590.0,0.28656919422714744
591.0,0.28729582867082526
592.0,0.28794370783672935
593.0,0.28859472336601993
594.0,0.2892855553562366
595.0,0.2899536388039693
596.0,0.2905737572894374
597.0,0.2911689676146333
598.0,0.29179200455660104
599.0,0.2924015247573405
600.0,0.29296613130619437
601.0,0.2935178838860832
602.0,0.29406892475478474
603.0,0.2945791473466085
604.0,0.29501411322653587
605.0,0.2954755879120869
606.0,0.2959605552067647
607.0,0.2964382692207151
608.0,0.29685857607019017
609.0,0.2972654086545032
610.0,0.29766820023472634
611.0,0.29806686707053637
612.0,0.2984617803190836
613.0,0.2988526663373792
614.0,0.2992348703742203
615.0,0.2996009817866434
616.0,0.299947558176441
617.0,0.30028087788095975
618.0,0.300609397028031
619.0,0.3009508345754379
620.0,0.3012103114288388
621.0,0.3014755643039021
622.0,0.3018212108774669
623.0,0.3021460712176834
624.0,0.30243967206915445
625.0,0.30272467972634964
626.0,0.30303336901504724
627.0,0.3032722164649471
628.0,0.30350739953035377
629.0,0.303776142982868
630.0,0.3040436648692573
631.0,0.3043242776550479
632.0,0.30461184159095994
633.0,0.3048924161168272
634.0,0.30514899132309603
635.0,0.3053876909978381
636.0,0.30562760560068414
637.0,0.3058906378074721
638.0,0.3061523361462999
639.0,0.3063840437715764
640.0,0.3065955827976805
641.0,0.30685876472743456
642.0,0.3071159290588987
643.0,0.30734474950227497
644.0,0.3075488678941797
645.0,0.30777384628847404
646.0,0.3080132188053299
647.0,0.30823941628288704
648.0,0.30841582572945864
649.0,0.30860087484304055
650.0,0.3088410688486027
651.0,0.3091340576982558
652.0,0.30940508384176196
653.0,0.30963536520186763
654.0,0.30982609311351034
655.0,0.31000733183577894
656.0,0.31026429613221007
657.0,0.3105180173805621
658.0,0.31073940839031616
659.0,0.31099226673843544
660.0,0.31115651539148875
661.0,0.3113484669659625
662.0,0.311604399014429
663.0,0.31170563309521604
664.0,0.31189578447516775
665.0,0.31216433992427023
666.0,0.3124077428295264
667.0,0.31259098229233695
668.0,0.31273303502910993
669.0,0.31290186639916834
670.0,0.3131957147539959
671.0,0.31339794862882
672.0,0.31356994114050196
673.0,0.3137801639328944
674.0,0.31398821835543483
675.0,0.31416198531690187
676.0,0.31430752895336195
677.0,0.31444991728989846
678.0,0.31460656548860705
679.0,0.31479371126830613
680.0,0.315000873330404
681.0,0.31519231038031464
682.0,0.3154007201788706
683.0,0.3155620964203954
684.0,0.3156492630364779
685.0,0.31577698154586925
686.0,0.3158613553782017
687.0,0.3159275446240993
688.0,0.31604100570197713
689.0,0.3161989681735275
690.0,0.31643160584615504
691.0,0.3166811851756055
692.0,0.3168048482643226
693.0,0.3168706199413885
694.0,0.3169934275663915
695.0,0.3172121340008572
696.0,0.31736995715731087
697.0,0.31754668246723716
698.0,0.317712043022684
699.0,0.3178144785579202
700.0,0.3179408206599742
701.0,0.3180916474822736
702.0,0.31825411758046984
703.0,0.3184066541529576
704.0,0.31851392118405164
705.0,0.31863486396298546
706.0,0.31880128724356765
707.0,0.3189426101847408
708.0,0.31904924290637554
709.0,0.31918219342749027
710.0,0.31938803550650996
711.0,0.3194697236826005
712.0,0.3195887635745173
713.0,0.31976318452632096
714.0,0.3198633272289445
715.0,0.31996261168180185
716.0,0.3200346664201969
717.0,0.3200591958580494
718.0,0.3200543977597343
719.0,0.3201523490891842
720.0,0.32038529698047535
721.0,0.3206702545077302
722.0,0.32080867220858406
723.0,0.3209148230651671
724.0,0.32102382639061766
725.0,0.3210970384771587
726.0,0.3212730042031455
727.0,0.3214590178614857
728.0,0.32159803526939823
729.0,0.32174809456135317
730.0,0.3218803059857961
731.0,0.32204638810515407
732.0,0.3222821048959752
733.0,0.3225041018186621
734.0,0.3226488996419416
735.0,0.322740128326678
736.0,0.3228517132275248
737.0,0.32303143238648574
738.0,0.3231711024347633
739.0,0.32326424429842326
740.0,0.3234716581829043
741.0,0.3236074791750384
742.0,0.32371990095837355
743.0,0.3238781323664992
744.0,0.324030614142053
745.0,0.3241789688873304
746.0,0.3243358610688245
747.0,0.3245096960980724
748.0,0.3246315045323139
749.0,0.3247877534903349
750.0,0.32499371341366234
751.0,0.32516985162043904
752.0,0.3253074521271388
753.0,0.325443599798181
754.0,0.3256094665040082
755.0,0.32580191244509893
756.0,0.32597202267948794
757.0,0.326141401376187
758.0,0.326300839229351
759.0,0.3260144820093318
760.0,0.3251903542320009
761.0,0.32417609409899406
762.0,0.32495578069394243
763.0,0.32549230751242075
764.0,0.3261203700844262
765.0,0.32685124743793226
766.0,0.3274052014354667
767.0,0.3276108176836465
768.0,0.3277104444612351
769.0,0.3278604112975762
770.0,0.3280035730898893
771.0,0.32808940439194595
772.0,0.32815952137029913
773.0,0.32828245277018814
774.0,0.3283665651885417
775.0,0.32849825953551115
776.0,0.32866327084720376
777.0,0.3287455721607521
778.0,0.32883415682528844
779.0,0.32894057570256546
780.0,0.3290702572983402
781.0,0.32924969593545683
782.0,0.3293617251717823
783.0,0.32940349732714874
784.0,0.3294289671964251
785.0,0.32954169076060236
786.0,0.3296720374411351
787.0,0.3297889866439559
788.0,0.32989332951400085
789.0,0.3300394093025045
790.0,0.33008787669735695
791.0,0.33006597618164335
792.0,0.3301928230573223
793.0,0.3302452780959304
794.0,0.3303070395562528
795.0,0.3304230608812866
796.0,0.33043445117905895
797.0,0.33050443543494246
798.0,0.33059551274398663
799.0,0.3306412708783548
800.0,0.3307123503764199
801.0,0.3307909578622951
802.0,0.33087049750428055
803.0,0.33094308051835375
804.0,0.33093196744596065
805.0,0.33095684674360276
806.0,0.3310372251881983
807.0,0.33108002340283516
808.0,0.33116596317006025
809.0,0.3312316357153192
810.0,0.3312474553455279
811.0,0.3312940243981262
812.0,0.3313199819801246
813.0,0.33126802338965117
814.0,0.33113690959820624
815.0,0.3311416215586162
816.0,0.33114798647478355
817.0,0.33114784726530855
818.0,0.3312006226676275
819.0,0.3313503779065134
820.0,0.3314458726042299
821.0,0.3314151085221998
822.0,0.33127261488629783
823.0,0.33126830988940414
824.0,0.3314061430351252
825.0,0.3315554016287962
826.0,0.331531166672045
827.0,0.33146248543186213
828.0,0.33144887124971917
829.0,0.33149995734278276
830.0,0.3314234158114597
831.0,0.33142132089365123
832.0,0.33141762889205983
833.0,0.3313376228681335
834.0,0.3314260302610639
835.0,0.33150464923367223
836.0,0.33149510628571294
837.0,0.3314114386130282
838.0,0.3314483262384402
839.0,0.331486742704504
840.0,0.33147226073045744
841.0,0.33142981564873175
842.0,0.33145663428868954
843.0,0.3314834488454448
844.0,0.331479421958366
845.0,0.3314865453411306
846.0,0.33146361725887624
847.0,0.3314623788389385
848.0,0.33149497316003473
849.0,0.3314659976261568
850.0,0.3314805379019077
851.0,0.33151200724096547
852.0,0.3314926777686537
853.0,0.33132635969214186
854.0,0.33134218965248186
855.0,0.33147018250943866
856.0,0.3315069249462762
857.0,0.33150469693008994
858.0,0.33148850674139807
859.0,0.33148337084938717
860.0,0.3314959265450944
861.0,0.3314226818509923
862.0,0.3314257422991038
863.0,0.3314523211829787
864.0,0.33130231861851456
865.0,0.3312827261008267
866.0,0.3312874722108097
867.0,0.3312971541958717
868.0,0.3314356449332267
869.0,0.331427690869101
870.0,0.3314323596849081
871.0,0.3315009418368414
872.0,0.33141749405829135
873.0,0.33130055639139855
874.0,0.33131632194422855
875.0,0.3314730871613462
876.0,0.3314233340930978
877.0,0.3313981659156521
878.0,0.33146206969109676
879.0,0.33157757484609957
880.0,0.3315509644838183
881.0,0.33158460374469506
882.0,0.3317000026639666
883.0,0.3318189298774925
884.0,0.3317786471886415
885.0,0.33177619384210805
886.0,0.331852730961074
887.0,0.33194836576820247
888.0,0.33196871893005137
889.0,0.3319643271333177
890.0,0.3319846256659116
891.0,0.33204913370420125
892.0,0.3320483768448287
893.0,0.33196819489876295
894.0,0.3318579989067871
895.0,0.33180910512533995
896.0,0.33182777260468904
897.0,0.3317473502955555
898.0,0.3315972972038576
899.0,0.33160981401603623
900.0,0.33147368192901067
901.0,0.33167508125123607
902.0,0.3321347163115691
903.0,0.33216089723153824
904.0,0.3323488534833975
905.0,0.33233197059451225
906.0,0.3320572536954305
907.0,0.33203865924283615
908.0,0.33187474369981956
909.0,0.33185266520071754
910.0,0.33216091589065183
911.0,0.33258537137874006
912.0,0.33246300214690194
913.0,0.332311379793547
914.0,0.3324544445840904
915.0,0.3324054037458776
916.0,0.3324176874367002
917.0,0.3325694621630988
918.0,0.3328566620690186
919.0,0.33320993887158973
920.0,0.3335358531774789
921.0,0.3336443741492517
922.0,0.3334966405450217
923.0,0.33337472444605903
924.0,0.3333171758426884
925.0,0.3333599413045514
926.0,0.33344537742051944
927.0,0.3333439944419772
928.0,0.3326971104060618
929.0,0.33181448735181795
930.0,0.3309691700637907
931.0,0.3294758661351196
932.0,0.327451517706313
933.0,0.32611638032643525
934.0,0.3262595175733514
935.0,0.3255511547023589
936.0,0.3254144992018228
937.0,0.3261577442262607
938.0,0.3274864385991484
939.0,0.32883214156838686
940.0,0.3294990849107965
941.0,0.32952921317465134
942.0,0.32925879101064404
943.0,0.3292208194894258
944.0,0.3288597273927367
945.0,0.32869727907730917
946.0,0.32906341330954103
947.0,0.3290880070779042
948.0,0.3292339932735882
949.0,0.32969019174089864
950.0,0.330326218001844
951.0,0.3305748194929082
952.0,0.33038823778019905
953.0,0.3304473349362974
954.0,0.33094380163143755
955.0,0.33089590275010733
956.0,0.3312309234055129
957.0,0.3318299143419148
958.0,0.3322766108982098
959.0,0.3321685155334252
960.0,0.33241089707204696
961.0,0.3331630313373656
962.0,0.3340281198105672
963.0,0.33421668984098957
964.0,0.3344554420669707
965.0,0.3352088639278235
966.0,0.33604058010749005
967.0,0.3358205604964334
968.0,0.33629281095650415
969.0,0.33660485301677634
970.0,0.3366010471489284
971.0,0.3371037055440946
972.0,0.3378508000737093
973.0,0.33774346630160595
974.0,0.33695142161029845
975.0,0.33679469452092703
976.0,0.337250173612351
977.0,0.33746407597218187
978.0,0.33754671257197205
979.0,0.3381297030544262
980.0,0.3382511336113553
981.0,0.3384878474541523
982.0,0.3387647852633282
983.0,0.3387473572473225
984.0,0.33879788737947986
985.0,0.33913018361818004
986.0,0.3396237130333158
987.0,0.3398858420263975
988.0,0.3390928161109311
989.0,0.33953659692731075
990.0,0.34005228572107454
991.0,0.3394913526055571
992.0,0.33984920351400333
993.0,0.339488987415859
994.0,0.33946875417740924
995.0,0.3401743938804074
996.0,0.33970805516700675
997.0,0.3399211410057748
998.0,0.340034096337097
999.0,0.3395585898644169
1000.0,0.339113449995089
1001.0,0.34842396842624757
1002.0,0.34826367955924803
1003.0,0.3483611574145914
1004.0,0.3484339910495991
1005.0,0.3484548115636089
1006.0,0.34864896110344284
1007.0,0.34872279420515756
1008.0,0.348540893748625
1009.0,0.34864787982754314
1010.0,0.34884896157060763
1011.0,0.3487496797026958
1012.0,0.3486577424008656
1013.0,0.34880588056582595
1014.0,0.34896743471418895
1015.0,0.3489900548670687
1016.0,0.3490404085386977
1017.0,0.34910884347995585
1018.0,0.34909615707164493
1019.0,0.3489100681675393
1020.0,0.34899560522308887
1021.0,0.34921021437476696
1022.0,0.3494165525400755
1023.0,0.3496039960769348
1024.0,0.34996311277175995
1025.0,0.3501339011548079
1026.0,0.3498361107314083
1027.0,0.34949940899101817
1028.0,0.3493483252094796
1029.0,0.3490215283410047
1030.0,0.34892617062878484
1031.0,0.3490487434563064
1032.0,0.34948447320346815
1033.0,0.349572428044147
1034.0,0.3497757327450011
1035.0,0.34984839665117645
1036.0,0.34966248635901365
1037.0,0.3496180014547024
1038.0,0.34967256031164984
1039.0,0.34985727536166505
1040.0,0.349789578045987
1041.0,0.3496716312125757
1042.0,0.34981405539013344
1043.0,0.3498368969342237
1044.0,0.3500032186295772
1045.0,0.3501375035506551
1046.0,0.3500775810364869
1047.0,0.349682959055281
1048.0,0.34956400718124964
1049.0,0.349372004144383
1050.0,0.3494509548525242
1051.0,0.34973104366485613
1052.0,0.350076184335075
1053.0,0.3504946487277453
1054.0,0.35079875251504355
1055.0,0.3509835400147604
1056.0,0.35101717039310376
1057.0,0.35093145928667324
1058.0,0.3508761827883923
1059.0,0.350877386763125
1060.0,0.35081179383933087
1061.0,0.3507916977066695
1062.0,0.350799405599797
1063.0,0.35066513135672694
1064.0,0.35036425722258363
1065.0,0.3502668270159883
1066.0,0.350207169965782
1067.0,0.3500379728097306
1068.0,0.35029551190970415
1069.0,0.3506050272292108
1070.0,0.3507339933162693
1071.0,0.3510184099723376
1072.0,0.3509549387519875
1073.0,0.350520680568612
1074.0,0.35027862775626845
1075.0,0.35026071879204645
1076.0,0.35066388350704114
1077.0,0.35105230481425254
1078.0,0.3512446289439204
1079.0,0.35145654037534513
1080.0,0.3515430792766649
1081.0,0.35123291627534176
1082.0,0.35118667273732945
1083.0,0.35125634989806936
1084.0,0.3510225760411272
1085.0,0.351066441337359
1086.0,0.3511947929011307
1087.0,0.3511533303570238
1088.0,0.3513205920662564
1089.0,0.35140552172735845
1090.0,0.35125549691987173
1091.0,0.3513321943004162
1092.0,0.35138905823662075
1093.0,0.35114593745999606
1094.0,0.3510699095691781
1095.0,0.3510408310400361
1096.0,0.35107943035379285
1097.0,0.35106078890274517
1098.0,0.3513864479221258
1099.0,0.35157987123166257
1100.0,0.3513238190285148
1101.0,0.3512839224808223
1102.0,0.351283719778591
1103.0,0.35130155392727663
1104.0,0.3517036997784734
1105.0,0.35206382845042644
1106.0,0.35214842272042834
1107.0,0.352098661227035
1108.0,0.35202615262598036
1109.0,0.3518222797060711
1110.0,0.35141161878458066
1111.0,0.35120474073705527
1112.0,0.3510903886108566
1113.0,0.3509608676957359
1114.0,0.3510145278935127
1115.0,0.3515557403233062
1116.0,0.3518729748110275
1117.0,0.35203579100287447
1118.0,0.35208165625858123
1119.0,0.3518483676031424
1120.0,0.3519615190770065
1121.0,0.35212014225302496
1122.0,0.35190473959210383
1123.0,0.3518463734738081
1124.0,0.3515640275303876
1125.0,0.35096370737492627
1126.0,0.35073697602409587
1127.0,0.3508314775008638
1128.0,0.35075517298935277
