Wavelength (nm),Reflectance
350.0,0.13973991801656108
351.0,0.13999228038352407
352.0,0.14049231594032122
353.0,0.1406661630933289
354.0,0.14016054485379334
355.0,0.14034696928363521
356.0,0.14123558457325033
357.0,0.1415604021772651
358.0,0.14218593862997148
359.0,0.14265550445482852
360.0,0.14278072066264375
361.0,0.1430233991679105
362.0,0.1432835860465949
363.0,0.14383024163187835
364.0,0.14468169181475515
365.0,0.14510877819313764
366.0,0.1454341560534774
367.0,0.14574432970115736
368.0,0.1461158797919052
369.0,0.14690516577197388
370.0,0.14789847809523227
371.0,0.14891493834117478
372.0,0.1498584270610007
373.0,0.1509449374169568
374.0,0.1519002986444527
375.0,0.1527339125792116
376.0,0.15380667012741578
377.0,0.15467785404914047
378.0,0.15526186504220452
379.0,0.15585464380042904
380.0,0.15738708536461532
381.0,0.15874381082837144
382.0,0.1600801397525667
383.0,0.16168868587186613
384.0,0.16282038254302425
385.0,0.1644420541444409
386.0,0.16595050643563958
387.0,0.16635054521269899
388.0,0.16739334677481607
389.0,0.16850040768374575
390.0,0.16944719050216916
391.0,0.17046973670189874
392.0,0.17158309365327115
393.0,0.1732884515574724
394.0,0.17546345081205694
395.0,0.17699634630553293
396.0,0.17799661264803485
397.0,0.17876623756464854
398.0,0.1795078820427914
399.0,0.17996995651152017
400.0,0.18050962888729719
401.0,0.18125004111290846
402.0,0.1821887468664917
403.0,0.1832501921467223
404.0,0.18432983679733142
405.0,0.1853508780456174
406.0,0.18627976765507953
407.0,0.18734117806649214
408.0,0.1885522734719339
409.0,0.18974021081163203
410.0,0.19047480058621388
411.0,0.19138130449992308
412.0,0.19241496915299625
413.0,0.19340062719374515
414.0,0.19436101829576619
415.0,0.1954299232068006
416.0,0.19660021632612038
417.0,0.1977707924296009
418.0,0.19878185960532688
419.0,0.1998745619731962
420.0,0.20111769076419608
421.0,0.20235902195154915
422.0,0.20364444908311607
423.0,0.20488810856597217
424.0,0.20609084940144
425.0,0.20749643684682795
426.0,0.20881404230871126
427.0,0.21018954644844387
428.0,0.21188749676637372
429.0,0.2139725873157585
430.0,0.21590318415938312
431.0,0.21754737512008362
432.0,0.21910913222991732
433.0,0.2204433574942752
434.0,0.22178518136074368
435.0,0.223310085587988
436.0,0.2250489015636505
437.0,0.22691786567114036
438.0,0.22876081365331957
439.0,0.23045255113267132
440.0,0.23203053990846856
441.0,0.2334615182228533
442.0,0.23480628205157575
443.0,0.23617135661522554
444.0,0.23759718842236097
445.0,0.23903637042644033
446.0,0.2404219057072727
447.0,0.2416769541425927
448.0,0.2427141663128777
449.0,0.243609504946919
450.0,0.24447010245377823
451.0,0.24537498269293234
452.0,0.24637423772676526
453.0,0.24737972656127832
454.0,0.24823496378703655
455.0,0.24878892081650214
456.0,0.2493115763224584
457.0,0.24990724704278308
458.0,0.2504912878955728
459.0,0.2510842970757785
460.0,0.2516188865764781
461.0,0.252068793482186
462.0,0.2525084966228192
463.0,0.25298192676755193
464.0,0.25354453068452437
465.0,0.2542088126360296
466.0,0.2548166866253771
467.0,0.2553248036816828
468.0,0.25579163379785874
469.0,0.2563453607888186
470.0,0.2569152297140726
471.0,0.2574539260482261
472.0,0.25795914052888924
473.0,0.25849208764751225
474.0,0.25917170617857815
475.0,0.2598903445304744
476.0,0.2605364285281241
477.0,0.26129267706637366
478.0,0.2619747144497629
479.0,0.26262026477276346
480.0,0.26341506795218794
481.0,0.2643463372587887
482.0,0.2651457081215985
483.0,0.26581779097316277
484.0,0.26685319209938496
485.0,0.26820676091993484
486.0,0.26962253374392514
487.0,0.2708008972100524
488.0,0.27162363606094886
489.0,0.27243008983959127
490.0,0.2735109352258286
491.0,0.2750289438474033
492.0,0.27648823590595356
493.0,0.2778413845561379
494.0,0.27911773330936723
495.0,0.2803666551486058
496.0,0.2817299736667648
497.0,0.28319514849279004
498.0,0.2847176772898656
499.0,0.286299624052796
500.0,0.2878757482923237
501.0,0.28946150816837907
502.0,0.2911035113550142
503.0,0.2926068114458652
504.0,0.29408232479373075
505.0,0.2956113711020786
506.0,0.29717343480371167
507.0,0.2988927381312216
508.0,0.3006776169329136
509.0,0.30240127271766204
510.0,0.30402872260965774
511.0,0.30564904279534605
512.0,0.30733733469305
513.0,0.3091318619135313
514.0,0.310788527681164
515.0,0.31249497939570264
516.0,0.3144103010233061
517.0,0.31654955405893564
518.0,0.31841161608477364
519.0,0.3199999203307802
520.0,0.32152571671433483
521.0,0.3232886189268015
522.0,0.32522922532238185
523.0,0.3271356522978836
524.0,0.32876126444631437
525.0,0.3307162545421145
526.0,0.33292129651513735
527.0,0.33510681323993224
528.0,0.336879291563282
529.0,0.33861069877217803
530.0,0.34043930742446415
531.0,0.34244247633744485
532.0,0.34464591163272734
533.0,0.34678077732465507
534.0,0.3487596201390338
535.0,0.3506831336215471
536.0,0.3527384893509083
537.0,0.35484139448763036
538.0,0.35694439852793014
539.0,0.35908864278279334
540.0,0.3612879462561913
541.0,0.3634083047804994
542.0,0.36534810323270916
543.0,0.3673607651198843
544.0,0.36939810348239277
545.0,0.37144971333988935
546.0,0.37352288455865357
547.0,0.37553899011493164
548.0,0.3774774556989588
549.0,0.3793246755610864
550.0,0.38104548392533805
551.0,0.38276423082251376
552.0,0.38445286985285304
553.0,0.3860462898951406
554.0,0.3876782765808888
555.0,0.3893644114671569
556.0,0.3911361375497705
557.0,0.3930399185190903
558.0,0.39478750007256436
559.0,0.3964067004026991
560.0,0.3979434084877448
561.0,0.39927179749244074
562.0,0.4007122144401918
563.0,0.40226375535248027
564.0,0.4037766670836502
565.0,0.4052782894819979
566.0,0.40677130561898406
567.0,0.4082511282668739
568.0,0.40970789020006243
569.0,0.4111291847792017
570.0,0.41232931326634115
571.0,0.413157033005284
572.0,0.4136989900272017
573.0,0.41432855318874434
574.0,0.4152299340263685
575.0,0.41639691781752114
576.0,0.41734084934257004
577.0,0.4182404203937698
578.0,0.419146519385673
579.0,0.4197907449003128
580.0,0.42038124126008064
581.0,0.4210344596192726
582.0,0.4217893367117101
583.0,0.4225179462492097
584.0,0.4231892879682875
585.0,0.42383543306033605
586.0,0.42454184659095134
587.0,0.4254183759596436
588.0,0.42671516704295376
589.0,0.4282575405272044
590.0,0.42900305065048466
591.0,0.4294485948282606
592.0,0.4298103235597182
593.0,0.43019621408509706
594.0,0.43052291868611875
595.0,0.43079872478289544
596.0,0.4310578506391131
597.0,0.43135751176495446
598.0,0.43172298776202417
599.0,0.43212216401738895
600.0,0.4325290763793888
601.0,0.432962093235643
602.0,0.4333955464601756
603.0,0.4337967952017795
604.0,0.43416609920491117
605.0,0.43468473113986683
606.0,0.4351881186430293
607.0,0.435631832977493
608.0,0.4361124589942992
609.0,0.4365109520562805
610.0,0.43684001945131923
611.0,0.4371345838915462
612.0,0.4374056977438645
613.0,0.43770020721251635
614.0,0.43800790547666124
615.0,0.43829544274842125
616.0,0.4386085796788905
617.0,0.43887703284806734
618.0,0.4390813651118356
619.0,0.43928286256873916
620.0,0.4395177079790441
621.0,0.4398213489262557
622.0,0.44017854691578673
623.0,0.44041719220435466
624.0,0.44076919210341453
625.0,0.4411185003713729
626.0,0.4412073909873675
627.0,0.4414866956250379
628.0,0.44182265604014187
629.0,0.4421088225252083
630.0,0.4423852250965484
631.0,0.44266234440867436
632.0,0.4429371149440327
633.0,0.4432158684040792
634.0,0.44357087964492725
635.0,0.4438652147657253
636.0,0.44409417874193163
637.0,0.44435310841882475
638.0,0.44475041817786765
639.0,0.445109921476456
640.0,0.4453533807210978
641.0,0.44563339330716345
642.0,0.44584992950668106
643.0,0.4460494820565977
644.0,0.4463217242023516
645.0,0.4467431570186764
646.0,0.44705080746772397
647.0,0.44726984815038334
648.0,0.4476454351082783
649.0,0.4478623114020242
650.0,0.44809371029101125
651.0,0.4484634081713818
652.0,0.4488647354395133
653.0,0.4491652530293062
654.0,0.44948974334968983
655.0,0.45000453910747923
656.0,0.45052010959320915
657.0,0.4506744011663929
658.0,0.45059578628867053
659.0,0.45082941940264837
660.0,0.4511243400552033
661.0,0.4513486896951256
662.0,0.45150718616215807
663.0,0.4519016735876005
664.0,0.4522483623142649
665.0,0.4524791957863425
666.0,0.45263445637014393
667.0,0.45281599793263133
668.0,0.4531392051330407
669.0,0.45354988753430187
670.0,0.4538431149187008
671.0,0.4540668656052432
672.0,0.4543787944238881
673.0,0.45481547469736316
674.0,0.4550764417258851
675.0,0.4553562607513102
676.0,0.4557072136495281
677.0,0.4561116394099961
678.0,0.45649158541717216
679.0,0.4569057827132405
680.0,0.4573792222171022
681.0,0.4578915005814884
682.0,0.4584473547412433
683.0,0.45907372827469267
684.0,0.45972212966856024
685.0,0.46009952095263296
686.0,0.4609365124325307
687.0,0.4619895129659125
688.0,0.46243580396671724
689.0,0.46313531984780987
690.0,0.46387577819994824
691.0,0.4646033747732119
692.0,0.4653961814769437
693.0,0.4662351616168058
694.0,0.4669747224233678
695.0,0.46756084022501293
696.0,0.4682472070705272
697.0,0.469078577280139
698.0,0.46987804364640473
699.0,0.4704339437293452
700.0,0.4709660853897346
701.0,0.4716836265243353
702.0,0.47249545837906254
703.0,0.47302592030322865
704.0,0.47355065300757215
705.0,0.4741437229371642
706.0,0.47479642818772855
707.0,0.47538098399758966
708.0,0.47596501333194297
709.0,0.47656124738406913
710.0,0.4771534364295388
711.0,0.4777066807530605
712.0,0.47817184423955683
713.0,0.4786407801299356
714.0,0.4793054117060519
715.0,0.4797258322757659
716.0,0.48009207272245963
717.0,0.4805714398277238
718.0,0.48090490282008497
719.0,0.48147285812780666
720.0,0.4820870106144391
721.0,0.4824630862421217
722.0,0.48298104104933925
723.0,0.4835413448293452
724.0,0.48404822929447777
725.0,0.48435968985280287
726.0,0.4849016165144559
727.0,0.48547600765334975
728.0,0.4859550924666596
729.0,0.4864755849206095
730.0,0.48691633445408317
731.0,0.48739268123951607
732.0,0.4879974121111089
733.0,0.48849571143753995
734.0,0.4889897135539462
735.0,0.4895204061188365
736.0,0.4900516973986302
737.0,0.4903952722674621
738.0,0.4908383491752817
739.0,0.4914519072012965
740.0,0.49189777998349576
741.0,0.4922931830467251
742.0,0.4927092885853777
743.0,0.49315822574908885
744.0,0.49351433930420696
745.0,0.4938502848753463
746.0,0.4942038195170211
747.0,0.4945865437680078
748.0,0.49496786695506145
749.0,0.49535617744903176
750.0,0.4957320214487634
751.0,0.4960450666772746
752.0,0.4963806367498192
753.0,0.4967117765702176
754.0,0.4970267628897089
755.0,0.49740589025549214
756.0,0.49783224380003943
757.0,0.4980756897316129
758.0,0.49795635794621224
759.0,0.4978653671997783
760.0,0.49849994636292616
761.0,0.499724337153031
762.0,0.49810057387320456
763.0,0.4985448185060529
764.0,0.4995093017933247
765.0,0.4999633085563769
766.0,0.5003222886186346
767.0,0.5005848262567725
768.0,0.5008573011158481
769.0,0.5011904954689551
770.0,0.5015277158764673
771.0,0.5016968733747574
772.0,0.501828724850591
773.0,0.5021421689179607
774.0,0.5023658592250967
775.0,0.5026035444014805
776.0,0.5028247783735942
777.0,0.5028733168018443
778.0,0.5031971088468724
779.0,0.5035367039324614
780.0,0.5036805079848977
781.0,0.5037702035403884
782.0,0.503875417909098
783.0,0.5040146095147562
784.0,0.5041763335601048
785.0,0.5043363442195773
786.0,0.5044726277908351
787.0,0.5045857132818727
788.0,0.5046884482956202
789.0,0.5047780967519264
790.0,0.504828764168034
791.0,0.5049098758465792
792.0,0.5051778545738509
793.0,0.5053189089905721
794.0,0.5053647581340999
795.0,0.5054129157742016
796.0,0.5055407671022404
797.0,0.5056933154589627
798.0,0.50581752393946
799.0,0.5058731985649713
800.0,0.5058478443716178
801.0,0.5058706837607755
802.0,0.5059306445937439
803.0,0.5059603616957443
804.0,0.5061486054432397
805.0,0.506314518493186
806.0,0.5063689666394767
807.0,0.5063652706679107
808.0,0.5064608335402108
809.0,0.50658237694611
810.0,0.5066144148733304
811.0,0.5064478208293346
812.0,0.5064383776418226
813.0,0.5064168968675355
814.0,0.5062062724010379
815.0,0.5062269589826036
816.0,0.5062667101625846
817.0,0.5063406991670788
818.0,0.5065266403235928
819.0,0.5066275896015974
820.0,0.506420675965038
821.0,0.5062117007522027
822.0,0.5065945707345073
823.0,0.5070363376381254
824.0,0.5068677023463866
825.0,0.5063311682528153
826.0,0.5066003711151401
827.0,0.5068007508217842
828.0,0.5068618806339807
829.0,0.5068494171106018
830.0,0.5067864166355971
831.0,0.5068361651370771
832.0,0.5069227107298347
833.0,0.5069354998630727
834.0,0.5069541982642785
835.0,0.5068753285238049
836.0,0.5067915958992282
837.0,0.5068622724021551
838.0,0.5070897489871781
839.0,0.5071838598319619
840.0,0.5071112917975733
841.0,0.5070472537163729
842.0,0.5068859903076239
843.0,0.5069268613774733
844.0,0.5071636563364329
845.0,0.507181097943075
846.0,0.5071650262875828
847.0,0.507000635185434
848.0,0.5067940095280691
849.0,0.5071703431656825
850.0,0.5071222230154353
851.0,0.5067717426440992
852.0,0.5065766601277727
853.0,0.5069194225283393
854.0,0.5075979131426178
855.0,0.5077130136421653
856.0,0.5067803606387076
857.0,0.5067982807899235
858.0,0.5068594543063434
859.0,0.5068938560029604
860.0,0.507181287241787
861.0,0.5070730659632726
862.0,0.5069084496223618
863.0,0.5067050061570678
864.0,0.5062872550103953
865.0,0.5068844331283079
866.0,0.5074817944271024
867.0,0.5074021916404602
868.0,0.5068941792951546
869.0,0.5066602597183548
870.0,0.506794536663088
871.0,0.507040589054111
872.0,0.5068339840556054
873.0,0.506891160696236
874.0,0.5071319340714443
875.0,0.5072639944489838
876.0,0.5069737294807383
877.0,0.5067436726044728
878.0,0.5067788043576972
879.0,0.5070688289343068
880.0,0.5072978011053674
881.0,0.507334421329964
882.0,0.5070714105444921
883.0,0.5066065137973705
884.0,0.5066230810756696
885.0,0.5067815283044759
886.0,0.5069716956725165
887.0,0.5071705217971205
888.0,0.5071832440193866
889.0,0.5070825686016281
890.0,0.5070090348703818
891.0,0.5071064740501716
892.0,0.5073765055917707
893.0,0.5073428238623815
894.0,0.5070593734207379
895.0,0.5070239983855482
896.0,0.5070514130736817
897.0,0.5071386857613969
898.0,0.5072702921524327
899.0,0.5074128288040158
900.0,0.5076622944344523
901.0,0.5079503090254777
902.0,0.5078683437868727
903.0,0.5068823433496025
904.0,0.5063652997569871
905.0,0.5064140672764771
906.0,0.5069167139222016
907.0,0.5077087399073421
908.0,0.5080241458822502
909.0,0.507952917991766
910.0,0.5076897703763377
911.0,0.5072640744363026
912.0,0.5075687385118679
913.0,0.5077810011494198
914.0,0.5075114994210834
915.0,0.5077764674606344
916.0,0.5082388423195899
917.0,0.5084847243473973
918.0,0.5083938810276101
919.0,0.508400196512584
920.0,0.5080458342351881
921.0,0.5080376531948919
922.0,0.5086613140831802
923.0,0.508823305323107
924.0,0.508922451831325
925.0,0.5087542455879661
926.0,0.5081725554945059
927.0,0.5074901372215673
928.0,0.5074096726834321
929.0,0.5073257264893252
930.0,0.5067652110270575
931.0,0.5073574589439673
932.0,0.5077913603534527
933.0,0.5082243529501529
934.0,0.5088911367233818
935.0,0.50825538708242
936.0,0.5083810687822278
937.0,0.5084707755768517
938.0,0.5075431114225597
939.0,0.5059862801010817
940.0,0.5042911370558419
941.0,0.5045160031688516
942.0,0.5072445815943667
943.0,0.5090915583411685
944.0,0.5085495159148236
945.0,0.5075499322986666
946.0,0.5080208960515677
947.0,0.5087841174978044
948.0,0.5088809409700258
949.0,0.5082809129311731
950.0,0.5075698563455501
951.0,0.5078027117662084
952.0,0.508766099623253
953.0,0.5098350197643023
954.0,0.5102258193652006
955.0,0.5092306638706592
956.0,0.508644519621452
957.0,0.5092551004828791
958.0,0.5108362191978505
959.0,0.5120926472101467
960.0,0.5120493887024078
961.0,0.5117091834814864
962.0,0.5118702072596161
963.0,0.5123570080378202
964.0,0.5126186517568952
965.0,0.5133819536142625
966.0,0.5141334221410332
967.0,0.5130624457257384
968.0,0.5120149811603693
969.0,0.5124045067730757
970.0,0.5136354490675061
971.0,0.5135681119392302
972.0,0.5142453680947404
973.0,0.5149371546060552
974.0,0.5156608939959346
975.0,0.5170456624163114
976.0,0.5169289995837494
977.0,0.5157970859128407
978.0,0.5151642998015536
979.0,0.516274150675452
980.0,0.5166636995855107
981.0,0.5168029783108308
982.0,0.5166625919138793
983.0,0.5161655657655985
984.0,0.5164367692582916
985.0,0.5177351616211524
986.0,0.5187346027057316
987.0,0.518332638592765
988.0,0.5184925940612312
989.0,0.5185181116116029
990.0,0.5180178375012556
991.0,0.51744782475287
992.0,0.5189709473132047
993.0,0.519551541103694
994.0,0.5192295382733318
995.0,0.5191457850248757
996.0,0.5205084830041378
997.0,0.5198440151365985
998.0,0.5199951260783917
999.0,0.5212628436401885
1000.0,0.5197746065759716
1001.0,0.5305085407203335
1002.0,0.5312935513102911
1003.0,0.5313132054012243
1004.0,0.5311218709941932
1005.0,0.5312917041617651
1006.0,0.531015204406144
1007.0,0.5310356753780648
1008.0,0.5317186003788509
1009.0,0.5318732079658286
1010.0,0.5317371623240879
1011.0,0.5321010490330385
1012.0,0.5326409920243651
1013.0,0.5333642541479128
1014.0,0.533791905915533
1015.0,0.533982482262618
1016.0,0.5342469024556149
1017.0,0.5342295107498776
1018.0,0.5344720726943263
1019.0,0.535078107862352
1020.0,0.5352962142998131
1021.0,0.5353148120844506
1022.0,0.535492129584547
1023.0,0.5353507052596501
1024.0,0.5353179555978741
1025.0,0.536105054843443
1026.0,0.5363272025897625
1027.0,0.5362312481617041
1028.0,0.5365522787753725
1029.0,0.5369021870089269
1030.0,0.5371091724887141
1031.0,0.5374347914682729
1032.0,0.5383880741483731
1033.0,0.5386662969768701
1034.0,0.5383110839744661
1035.0,0.5383948197530549
1036.0,0.5385675925459141
1037.0,0.5387005594961085
1038.0,0.5385502238418512
1039.0,0.5385973630156045
1040.0,0.5386862070991822
1041.0,0.5386103722210588
1042.0,0.538942874172946
1043.0,0.5394235852410902
1044.0,0.5397162186908692
1045.0,0.5397383167246469
1046.0,0.5399982850913918
1047.0,0.540492078865021
1048.0,0.5407330783987772
1049.0,0.540799640182569
1050.0,0.5410785984182221
1051.0,0.541328637167338
1052.0,0.5415565159602598
1053.0,0.5420338614025034
1054.0,0.542679283510413
1055.0,0.5430866972741102
1056.0,0.5433609621347596
1057.0,0.543390203667821
1058.0,0.5435176688241687
1059.0,0.5437720111198743
1060.0,0.5440645492376036
1061.0,0.5445827892587329
1062.0,0.5450194598620139
1063.0,0.5454121973864174
1064.0,0.5458282855122206
1065.0,0.5460559954102759
1066.0,0.5464183607626952
1067.0,0.5468997626243923
1068.0,0.5472806095240065
1069.0,0.5477714324327451
1070.0,0.5481091043953317
1071.0,0.5486822738151321
1072.0,0.549183472494841
1073.0,0.5490921762152784
1074.0,0.549208591359963
1075.0,0.5493401320311061
1076.0,0.5493777260585118
1077.0,0.5499035878078301
1078.0,0.5504764492577566
1079.0,0.5512206467348102
1080.0,0.5517293719882879
1081.0,0.5522674740487534
1082.0,0.5532084473712655
1083.0,0.553904287219054
1084.0,0.553959678210177
1085.0,0.5542727517609684
1086.0,0.554575125352183
1087.0,0.5548140140539292
1088.0,0.5556368086212923
1089.0,0.5565674047709829
1090.0,0.5570135231980466
1091.0,0.5573293937414119
1092.0,0.5574875039455147
1093.0,0.5575246297182599
1094.0,0.5577843675437101
1095.0,0.558175059639487
1096.0,0.5585107133074826
1097.0,0.5590453970894798
1098.0,0.5597643568078103
1099.0,0.560162546138017
1100.0,0.5604359441872059
1101.0,0.560460483766336
1102.0,0.5600050799289651
1103.0,0.5599674308916872
1104.0,0.5606676687790221
1105.0,0.5610725264543452
1106.0,0.5612920891823502
1107.0,0.5616169573144818
1108.0,0.5615582840392891
1109.0,0.5616758702288068
1110.0,0.5623795732668251
1111.0,0.5626598257465362
1112.0,0.5627580962207358
1113.0,0.5625821939235793
1114.0,0.5628502804922063
1115.0,0.5632822983482885
1116.0,0.5638547984501582
1117.0,0.5636976913897632
1118.0,0.5630300581263381
1119.0,0.5620585200649706
1120.0,0.5609556187462081
1121.0,0.5614618992323954
1122.0,0.5621249483494953
1123.0,0.5621551472340572
1124.0,0.5626615842373484
1125.0,0.5620699680370074
1126.0,0.561989274630768
1127.0,0.5618986784911291
1128.0,0.5621739154440369
1129.0,0.5624732696541352
1130.0,0.5635547961626663
1131.0,0.5641041396202827
1132.0,0.5643956739566435
1133.0,0.5653193610864982
1134.0,0.5662651553128142
1135.0,0.5675584235577624
1136.0,0.5680426109894761
