Wavelength (nm),Reflectance
350.0,0.19177882867489526
351.0,0.19257040727282201
352.0,0.19318867485225147
353.0,0.1931703867606011
354.0,0.19319153634258293
355.0,0.19322265427580476
356.0,0.19348953237339048
357.0,0.19439304140875738
358.0,0.1947887729863467
359.0,0.19509869083613168
360.0,0.19561733271703496
361.0,0.1960717699961367
362.0,0.19634711080458958
363.0,0.19673584101952113
364.0,0.197398908252276
365.0,0.1979800664123077
366.0,0.19829371760528644
367.0,0.19870012282028446
368.0,0.19949241196627027
369.0,0.19970578390242086
370.0,0.20002289335734988
371.0,0.2004521054255402
372.0,0.20061473376007685
373.0,0.20126420922456648
374.0,0.20201571130030982
375.0,0.20262788968594309
376.0,0.20319484157047474
377.0,0.20402744020831626
378.0,0.20486494617757006
379.0,0.2055181869423638
380.0,0.2061699635762407
381.0,0.2065225315693777
382.0,0.2069133362560063
383.0,0.20766666847636545
384.0,0.20831583060927847
385.0,0.208896907476563
386.0,0.20967393287726
387.0,0.21088250389142507
388.0,0.21199055566714306
389.0,0.21270467642076393
390.0,0.21305273636452135
391.0,0.21334609440902058
392.0,0.2141026265865011
393.0,0.21485531662388319
394.0,0.2153294976194869
395.0,0.21580804184404245
396.0,0.21640242779122762
397.0,0.21712396361822492
398.0,0.2179150642837202
399.0,0.2186686008070705
400.0,0.2192629725767307
401.0,0.21976015847752858
402.0,0.22026664352961395
403.0,0.2207029128817912
404.0,0.2210342077793489
405.0,0.22138572405044085
406.0,0.22197363708431586
407.0,0.2223349869218601
408.0,0.2227101175357082
409.0,0.22325624117567655
410.0,0.22381306126162312
411.0,0.22428111914727045
412.0,0.22479314800357483
413.0,0.2254435429889422
414.0,0.22597961826687235
415.0,0.2264813878996977
416.0,0.22698591070890883
417.0,0.22750772591313384
418.0,0.2280908755464007
419.0,0.22866542896043943
420.0,0.22923063377412053
421.0,0.2298670110413586
422.0,0.2304423126142146
423.0,0.23116782466804128
424.0,0.2320933527243005
425.0,0.2327609779788491
426.0,0.2334327267705968
427.0,0.2341607525032098
428.0,0.23493313406802288
429.0,0.23577752030665047
430.0,0.23661699740871506
431.0,0.2375280791853354
432.0,0.2386673771963863
433.0,0.23980396203888388
434.0,0.24089585464806035
435.0,0.2419301605250697
436.0,0.24289327532079272
437.0,0.24371881039424836
438.0,0.24452219746710052
439.0,0.24541430366304065
440.0,0.24634560788668153
441.0,0.24730037136590022
442.0,0.2482796705177706
443.0,0.2492652906835674
444.0,0.25004777143799073
445.0,0.2507358280696111
446.0,0.2514024673820043
447.0,0.25204432192418613
448.0,0.25276871770394177
449.0,0.2534327002318624
450.0,0.2539224464302431
451.0,0.2543227727424745
452.0,0.25470076332362485
453.0,0.2550226547496941
454.0,0.25525331810541957
455.0,0.2556142918386599
456.0,0.25600352905156964
457.0,0.2563202924705592
458.0,0.2565036323188464
459.0,0.25672738867719425
460.0,0.2569623729987587
461.0,0.257168136083684
462.0,0.25735755358812756
463.0,0.25756234124000343
464.0,0.2577484367585322
465.0,0.25789209708426286
466.0,0.2581325862223483
467.0,0.2583737542141796
468.0,0.25861186112788087
469.0,0.25891264576324147
470.0,0.25911843887086505
471.0,0.25936433512070334
472.0,0.2597176962741418
473.0,0.2600558216009809
474.0,0.260315889530331
475.0,0.2605858759619197
476.0,0.26094550824872537
477.0,0.26121411141969925
478.0,0.26157347212419724
479.0,0.26205049915669704
480.0,0.26254648936705505
481.0,0.26293236682209653
482.0,0.2633269066758119
483.0,0.2637972051916213
484.0,0.26426441729772154
485.0,0.2646919767668612
486.0,0.26517978553725335
487.0,0.2658541283553908
488.0,0.26677814120068594
489.0,0.2676745108255759
490.0,0.26840606035141695
491.0,0.2689815541538257
492.0,0.2695975175640953
493.0,0.2703346315495198
494.0,0.27119401562269524
495.0,0.27209102588779965
496.0,0.27294104321456925
497.0,0.2737684224155532
498.0,0.2746254383692979
499.0,0.27550723380468867
500.0,0.2764289766221351
501.0,0.2773706256579282
502.0,0.2783017456761589
503.0,0.27934583172094096
504.0,0.2803855354549776
505.0,0.2813659700660739
506.0,0.2823730934129308
507.0,0.2833138799101007
508.0,0.28425216163613515
509.0,0.2852701682128035
510.0,0.28635749253356696
511.0,0.28740026180111217
512.0,0.2883897841582334
513.0,0.28940092405239376
514.0,0.2905693743363811
515.0,0.2917324717428476
516.0,0.2927999369001659
517.0,0.29385683141490554
518.0,0.29510892150139406
519.0,0.29651482962947756
520.0,0.29791716425025866
521.0,0.2991300002617103
522.0,0.3002516085954134
523.0,0.301423436928167
524.0,0.3027648009050756
525.0,0.3039983255039961
526.0,0.305144507147589
527.0,0.3063341505751735
528.0,0.30782711870617535
529.0,0.30935912599465815
530.0,0.31073896022036607
531.0,0.3119081153296189
532.0,0.3130563115820823
533.0,0.31437480332104
534.0,0.3158474692324281
535.0,0.31730131338219
536.0,0.3186936689546577
537.0,0.3200616436036068
538.0,0.32145136331237145
539.0,0.3228461175691956
540.0,0.3242940713932205
541.0,0.3258494227683124
542.0,0.3275177343151929
543.0,0.3290666512751472
544.0,0.33064345353495295
545.0,0.33228306876674024
546.0,0.3338933768867244
547.0,0.33548860660582985
548.0,0.3371229115709562
549.0,0.3387978332309645
550.0,0.34039560374894595
551.0,0.3418503956271348
552.0,0.3431851624970439
553.0,0.3444598541786435
554.0,0.34569719045366565
555.0,0.3468425041334095
556.0,0.3478831066618748
557.0,0.34885937578393933
558.0,0.34989027645564424
559.0,0.35104774253789817
560.0,0.3523332019806879
561.0,0.35363927762802994
562.0,0.3549209946967322
563.0,0.35623694273226153
564.0,0.3576743110844179
565.0,0.3591053836933053
566.0,0.3605183470162171
567.0,0.3618478782669616
568.0,0.3629541009542346
569.0,0.3637273153374535
570.0,0.36430796559672163
571.0,0.36487864221751964
572.0,0.3655241544236164
573.0,0.36620482817671446
574.0,0.3669371056018117
575.0,0.36776906728906505
576.0,0.36873737303526866
577.0,0.3696264954280953
578.0,0.3703673920632261
579.0,0.37116083209091283
580.0,0.3720107373129533
581.0,0.37285480962072926
582.0,0.3735995106280163
583.0,0.3741351314541121
584.0,0.374465695673966
585.0,0.374729386712883
586.0,0.3751380766965945
587.0,0.37561331489348293
588.0,0.3759310863012148
589.0,0.3760988704650318
590.0,0.37659220076204747
591.0,0.3772072871051285
592.0,0.37773428380799096
593.0,0.37807824265514484
594.0,0.3785527765361576
595.0,0.37911797282333454
596.0,0.379726621007036
597.0,0.3803335620240842
598.0,0.3808099930906358
599.0,0.3811626287183437
600.0,0.381420240373508
601.0,0.3815860636985536
602.0,0.3817777243338371
603.0,0.38203147717876496
604.0,0.3823234881046196
605.0,0.3825285168442272
606.0,0.38276225683492937
607.0,0.38304472313972576
608.0,0.38328377003171427
609.0,0.38350025833573115
610.0,0.38371171999869774
611.0,0.3839335040915152
612.0,0.3841714329274575
613.0,0.3844527917290411
614.0,0.3847558626670485
615.0,0.38502588208028204
616.0,0.3851687579595414
617.0,0.3853872947609707
618.0,0.38570454891408923
619.0,0.3859021772255127
620.0,0.3861120697637982
621.0,0.3863087887940717
622.0,0.3864726394962872
623.0,0.3867186975886043
624.0,0.38695400000430824
625.0,0.38720226160895854
626.0,0.38753729226046396
627.0,0.38783268253668135
628.0,0.38809502169154736
629.0,0.3883337853053271
630.0,0.38853945572661625
631.0,0.3887328045076007
632.0,0.3889338201008898
633.0,0.3891408091403774
634.0,0.389277309902926
635.0,0.3894453864152746
636.0,0.38964135223601415
637.0,0.3897922426517555
638.0,0.38993566842220334
639.0,0.390114755181974
640.0,0.3903232977547201
641.0,0.39045660341733157
642.0,0.3906901704236792
643.0,0.3909505598452457
644.0,0.39111938947664837
645.0,0.3912329570019509
646.0,0.3914037159494969
647.0,0.3916628895532229
648.0,0.39195901130754024
649.0,0.39215352520955
650.0,0.3923048826106627
651.0,0.39247262244067216
652.0,0.3926507969472358
653.0,0.3928673100833646
654.0,0.39304393803893084
655.0,0.39309144169578486
656.0,0.39300610348454956
657.0,0.3933149343220699
658.0,0.39381541434028955
659.0,0.3937766089927454
660.0,0.39373753210404805
661.0,0.3938261624983908
662.0,0.3940230048989665
663.0,0.39412815326883716
664.0,0.3942740480002658
665.0,0.39445217596890053
666.0,0.3946074486864145
667.0,0.39472439103817236
668.0,0.39481987877794955
669.0,0.3949080102196297
670.0,0.394997913249014
671.0,0.3950703582248816
672.0,0.39517470339921323
673.0,0.39534315736052533
674.0,0.395549313161013
675.0,0.3957382075963393
676.0,0.39586199839119096
677.0,0.39591246678314157
678.0,0.3960596333282279
679.0,0.39621623268179806
680.0,0.3963492198962866
681.0,0.39649909387454896
682.0,0.3966863996802157
683.0,0.3968580236265429
684.0,0.3970524103092805
685.0,0.3976380496695265
686.0,0.3979437678227314
687.0,0.3981818856641869
688.0,0.3988593350646571
689.0,0.3992707161085813
690.0,0.399348516245894
691.0,0.39930138171782853
692.0,0.39943824640162034
693.0,0.3995915071009768
694.0,0.39968501888684743
695.0,0.3997197953414284
696.0,0.39986126170239394
697.0,0.3999601662911706
698.0,0.4000585224995892
699.0,0.40025955669979707
700.0,0.4005672865860706
701.0,0.4008135719596693
702.0,0.4009401361357994
703.0,0.4010226912519901
704.0,0.40118163916502864
705.0,0.4013297608026535
706.0,0.40142087100838886
707.0,0.4015987857381373
708.0,0.4017462158073102
709.0,0.4018884029530849
710.0,0.4020841266063472
711.0,0.4022725649143029
712.0,0.4024308388642343
713.0,0.4025860855139856
714.0,0.402814251063388
715.0,0.4032360365883603
716.0,0.40379465289566424
717.0,0.40441152449497364
718.0,0.4049754863367432
719.0,0.4051947884236809
720.0,0.4051970912479042
721.0,0.40527760794538803
722.0,0.4053804050580492
723.0,0.40551263263920706
724.0,0.4057239171675021
725.0,0.4060582711602962
726.0,0.4063881287153218
727.0,0.40658935167198246
728.0,0.40665366331458896
729.0,0.4067374624412644
730.0,0.4068840075560939
731.0,0.4070016306678382
732.0,0.40701261914705794
733.0,0.407051714987705
734.0,0.40713943296635546
735.0,0.40725503384261696
736.0,0.4073583247687903
737.0,0.4075117243037241
738.0,0.40769876028151286
739.0,0.40789473204245463
740.0,0.4080728773491087
741.0,0.40816283028399897
742.0,0.4082866376341846
743.0,0.40852639537285834
744.0,0.40869756435961985
745.0,0.4088655884083264
746.0,0.4090531588777714
747.0,0.40925321512876794
748.0,0.4094034179563154
749.0,0.4095936122450755
750.0,0.4098359247306009
751.0,0.41004141337716243
752.0,0.41022237931943134
753.0,0.41040516152680623
754.0,0.41061012377927253
755.0,0.41083279149510826
756.0,0.4110406387084833
757.0,0.41152095642877556
758.0,0.4124939082943778
759.0,0.41319076890922574
760.0,0.4140939131402149
761.0,0.4161447150200562
762.0,0.41834603300146106
763.0,0.4179765924497011
764.0,0.4169023336761404
765.0,0.41601710218262544
766.0,0.41487185853732467
767.0,0.4141819118200419
768.0,0.4137772391082234
769.0,0.4135076424692698
770.0,0.4134211748702053
771.0,0.413492731091233
772.0,0.41360237751278073
773.0,0.4136205706887388
774.0,0.4137019873427731
775.0,0.4138376748988461
776.0,0.4139947084725244
777.0,0.4141308635656724
778.0,0.41421314171300105
779.0,0.4142682492978009
780.0,0.4143326964356206
781.0,0.4144353411327961
782.0,0.4145862407747613
783.0,0.4147411597691744
784.0,0.4148615587002879
785.0,0.41500480874882895
786.0,0.41514345969967054
787.0,0.4152546175197211
788.0,0.41533395620174063
789.0,0.41548981857418804
790.0,0.4156250884362142
791.0,0.41571285511371786
792.0,0.41582430470073983
793.0,0.4158410694210699
794.0,0.4158503650721048
795.0,0.4159328724742282
796.0,0.4160739873290327
797.0,0.4162157529676858
798.0,0.4162908355460746
799.0,0.4162877338017047
800.0,0.4163887059192
801.0,0.41646372558403216
802.0,0.41653342514526404
803.0,0.4166816482346255
804.0,0.41675229046310575
805.0,0.4168263349633229
806.0,0.41692512546649746
807.0,0.4169903261280709
808.0,0.41701014555459265
809.0,0.41704555445381575
810.0,0.41716177608354943
811.0,0.41740528608064814
812.0,0.4176829099030963
813.0,0.418037543715611
814.0,0.41845936900013453
815.0,0.4185961562047733
816.0,0.4186470767160327
817.0,0.41867929607677884
818.0,0.41866450850584896
819.0,0.41842746009233717
820.0,0.4184796921227468
821.0,0.4187321875226489
822.0,0.41867749795970544
823.0,0.41839146334399513
824.0,0.4183734708562351
825.0,0.4186133875085765
826.0,0.4184732189751357
827.0,0.4184005636509309
828.0,0.4184140518008893
829.0,0.4184751303828947
830.0,0.41861608278028783
831.0,0.41854194096071357
832.0,0.418385088609487
833.0,0.4183462348470471
834.0,0.4183497518956607
835.0,0.4182471168390145
836.0,0.41814029997666075
837.0,0.4181872348461019
838.0,0.4181383514681213
839.0,0.41817369097047424
840.0,0.4182539362685848
841.0,0.41817836501001643
842.0,0.41809432788442435
843.0,0.4181019065051017
844.0,0.4181885268430084
845.0,0.4182141775386194
846.0,0.4181605402802874
847.0,0.4181495282816124
848.0,0.41820982761046
849.0,0.4181380770349458
850.0,0.41816656662291923
851.0,0.41835213974282454
852.0,0.41858332746220484
853.0,0.41843325122123515
854.0,0.4181459217665208
855.0,0.4180769515541846
856.0,0.4184126418402548
857.0,0.4186117692419102
858.0,0.41862039843497145
859.0,0.4184958330574028
860.0,0.41838039180292824
861.0,0.4184961416414706
862.0,0.41863495147903884
863.0,0.4187198597904706
864.0,0.4187944748695064
865.0,0.4186399431309335
866.0,0.4185614562043403
867.0,0.4186646320896848
868.0,0.4187277484752679
869.0,0.418868754716046
870.0,0.4189636975139301
871.0,0.4189661502176147
872.0,0.4189954597647346
873.0,0.4189659500801043
874.0,0.41894365862759675
875.0,0.418998325665767
876.0,0.41913329840873614
877.0,0.4192257554832981
878.0,0.41930169658887656
879.0,0.4194110865571019
880.0,0.4195380099022053
881.0,0.419534746636715
882.0,0.4195404557866041
883.0,0.4197027530906655
884.0,0.41975437192189985
885.0,0.4197827630810323
886.0,0.41981308553251173
887.0,0.4198452965942723
888.0,0.41990274507481723
889.0,0.42009210144442427
890.0,0.4203480197870202
891.0,0.42051728810400474
892.0,0.42064164467262033
893.0,0.42075149012739854
894.0,0.42100238276612234
895.0,0.42154656301980503
896.0,0.42160079379683474
897.0,0.4217533587904773
898.0,0.4221351289707756
899.0,0.4222078621899054
900.0,0.42198236695745384
901.0,0.4219521527464739
902.0,0.4222023666641549
903.0,0.42234011551181766
904.0,0.422745259529202
905.0,0.4230553425011579
906.0,0.42305411710783786
907.0,0.42286281805230197
908.0,0.42274864095461046
909.0,0.4228238053958319
910.0,0.42318319200222093
911.0,0.4239235449442786
912.0,0.4242133343399809
913.0,0.424356367239191
914.0,0.42458380080292585
915.0,0.42454234248030004
916.0,0.42444295804942533
917.0,0.4242990771020946
918.0,0.42416081280593854
919.0,0.4242079042850263
920.0,0.42454542647167887
921.0,0.42475665934613294
922.0,0.4246189522885599
923.0,0.4245466999276301
924.0,0.42489394115407686
925.0,0.4254358331920591
926.0,0.42598137272772324
927.0,0.42690351271194266
928.0,0.4272127751450666
929.0,0.42732566532161914
930.0,0.42787938923417346
931.0,0.42851086961792856
932.0,0.4283997692140392
933.0,0.427856790141298
934.0,0.42766328093041367
935.0,0.4279199833722074
936.0,0.42785963699802226
937.0,0.42850770102484226
938.0,0.4302109757515202
939.0,0.43120795972889214
940.0,0.43095587680185293
941.0,0.4303084010027466
942.0,0.43004742166083115
943.0,0.4299657118946194
944.0,0.4298016688276311
945.0,0.4296728502576692
946.0,0.42975664414440934
947.0,0.43005196759764164
948.0,0.4301442569004941
949.0,0.43023569586806404
950.0,0.43050512995320334
951.0,0.4307397270751803
952.0,0.4313490335595358
953.0,0.43160559908866997
954.0,0.43130168307324585
955.0,0.43161853152188606
956.0,0.43129818042526336
957.0,0.4310211514059645
958.0,0.4312365355414553
959.0,0.4313460687528055
960.0,0.43150786319393625
961.0,0.4319196809717692
962.0,0.4321809270296444
963.0,0.431306367070885
964.0,0.4318260558108943
965.0,0.43221408891387814
966.0,0.4317789209993236
967.0,0.4315806325430477
968.0,0.4319293473267508
969.0,0.4326184418757881
970.0,0.4330312646786706
971.0,0.4324684194328301
972.0,0.43206690724933605
973.0,0.43229224090894214
974.0,0.4328655738254224
975.0,0.4330084849730982
976.0,0.4329229690588109
977.0,0.4336032665737984
978.0,0.434248510952563
979.0,0.4334053099791034
980.0,0.43352096968699094
981.0,0.4335373274581065
982.0,0.43382011568963147
983.0,0.43495194243036356
984.0,0.4346398014626329
985.0,0.43400389196021283
986.0,0.43368661874624076
987.0,0.4338642030413254
988.0,0.4341434566225634
989.0,0.43438480580399313
990.0,0.43450958701421616
991.0,0.43454664683832384
992.0,0.4346636812626435
993.0,0.4350563948768841
994.0,0.435383596721083
995.0,0.43558815838693055
996.0,0.4362973633508398
997.0,0.4360492846527007
998.0,0.4358628088223307
999.0,0.43615671721833466
1000.0,0.4360404693859604
1001.0,0.4287236405546511
1002.0,0.4289568068726983
1003.0,0.42934032571370323
1004.0,0.43023796508591655
1005.0,0.43078525229625675
1006.0,0.43130112419441846
1007.0,0.43166403792196245
1008.0,0.431940243290431
1009.0,0.43197026135415945
1010.0,0.431864332791219
1011.0,0.43197297625662484
1012.0,0.4322224225885203
1013.0,0.43196482656688284
1014.0,0.4317826051399747
1015.0,0.4320414979516309
1016.0,0.43220286852467155
1017.0,0.43228246675239934
1018.0,0.4326765048594154
1019.0,0.43336598853443287
1020.0,0.4338179447271497
1021.0,0.43429980865707607
1022.0,0.4347947868020666
1023.0,0.43523472853516704
1024.0,0.43567674223846387
1025.0,0.4360238182243706
1026.0,0.4363510411512114
1027.0,0.4365692806786702
1028.0,0.43644354262329
1029.0,0.43656209289111253
1030.0,0.4366469641588886
1031.0,0.43676540747288045
1032.0,0.4369606855497512
1033.0,0.43730817664676314
1034.0,0.4377830355336623
1035.0,0.4380823125008473
1036.0,0.43843238876631024
1037.0,0.43862192970096964
1038.0,0.4388654810957011
1039.0,0.43898018983629006
1040.0,0.43938085385515546
1041.0,0.4399092715374721
1042.0,0.4401112189192074
1043.0,0.4405915800554597
1044.0,0.44093462878970097
1045.0,0.44071380267051125
1046.0,0.4407614207196549
1047.0,0.4407904923524675
1048.0,0.4407080131362303
1049.0,0.4406163359385354
1050.0,0.44083326431717534
1051.0,0.4410552245017201
1052.0,0.44126018362864855
1053.0,0.44189872424370197
1054.0,0.44203183009055513
1055.0,0.4419261202249359
1056.0,0.44212120620721707
1057.0,0.4421718668617918
1058.0,0.44235249471565175
1059.0,0.44268641755356575
1060.0,0.4425661656179063
1061.0,0.44250388649494826
1062.0,0.4426769855505378
1063.0,0.44272653436933274
1064.0,0.44270937299706836
1065.0,0.4428238405627975
1066.0,0.44279716833856564
1067.0,0.4427703999262632
1068.0,0.44297336643072416
1069.0,0.4432693385973531
1070.0,0.4439996380813615
1071.0,0.444607161428535
1072.0,0.44484029842047446
1073.0,0.4451576784507254
1074.0,0.4452402931175464
1075.0,0.445242857539644
1076.0,0.44550043765041086
1077.0,0.4456540254740931
1078.0,0.4457915954578364
1079.0,0.44589851787992285
1080.0,0.44606021676342134
1081.0,0.44619300485703767
1082.0,0.44655098312189057
1083.0,0.4468619222313783
1084.0,0.4471876829778145
1085.0,0.4473537958176081
1086.0,0.4473105937601388
1087.0,0.4476288785415606
1088.0,0.44788692611203723
1089.0,0.44814266085507565
1090.0,0.44850456757702284
1091.0,0.44863649840955366
1092.0,0.4487582906138307
1093.0,0.4490595163192631
1094.0,0.4493485086005441
1095.0,0.4496856600456353
1096.0,0.4500942329422671
1097.0,0.4504424755618619
1098.0,0.45070227216987657
1099.0,0.4511755325299322
1100.0,0.45155812693610164
1101.0,0.45220648725160895
1102.0,0.45297657308750483
1103.0,0.45345621331630864
1104.0,0.45384893402148735
1105.0,0.4540079330230439
1106.0,0.4541493759829384
1107.0,0.4542979173687414
1108.0,0.45431149975889784
1109.0,0.45463414485734455
1110.0,0.4554055237500095
1111.0,0.4559416312942659
1112.0,0.4565683408784365
1113.0,0.4573921212872031
1114.0,0.45795410959553673
1115.0,0.4577225883898066
1116.0,0.45805916403310537
1117.0,0.4589064630404177
1118.0,0.4597418143759278
1119.0,0.46148764092309597
1120.0,0.46293049312250234
1121.0,0.4641082883942922
1122.0,0.46575827956453314
1123.0,0.4671055107550697
1124.0,0.4681484031922398
1125.0,0.4686026391327025
1126.0,0.46918377600386507
1127.0,0.46915418105573925
1128.0,0.46956192752866904
1129.0,0.470038654113399
1130.0,0.4709954973585076
