Wavelength (nm),Reflectance
350.0,0.18721436458685578
351.0,0.1881205944147339
352.0,0.18856751879090736
353.0,0.18864988689001028
354.0,0.18890831292788687
355.0,0.18906531378891303
356.0,0.1892425352369386
357.0,0.189885234849157
358.0,0.1897316241820131
359.0,0.18958888263793217
360.0,0.19000674267117015
361.0,0.1906704780907478
362.0,0.1913715982741405
363.0,0.19196777646380866
364.0,0.19246655673157553
365.0,0.193154088705342
366.0,0.19372742410715507
367.0,0.19435141459145422
368.0,0.19515338491483636
369.0,0.19533538265413436
370.0,0.19553543403414098
371.0,0.19568375586867934
372.0,0.1953487290805155
373.0,0.1955208462025275
374.0,0.1958378280978355
375.0,0.19629543498831908
376.0,0.19741587817498535
377.0,0.19840867265166248
378.0,0.19931463451778045
379.0,0.20011361603451705
380.0,0.20030599235386565
381.0,0.20027446583542255
382.0,0.20030205786565403
383.0,0.2005218794144738
384.0,0.20061009142666383
385.0,0.20099440444887226
386.0,0.20187475209953198
387.0,0.20322928667436177
388.0,0.20474081800029265
389.0,0.2057098716025195
390.0,0.20612428127370302
391.0,0.20655157093625198
392.0,0.206642321108371
393.0,0.2063389258246161
394.0,0.2059287071082912
395.0,0.20609751032248183
396.0,0.20682773482965666
397.0,0.2079166907435539
398.0,0.2091617967511488
399.0,0.21059473855310196
400.0,0.21159442594878147
401.0,0.21228411607790285
402.0,0.21297640833290685
403.0,0.21325980435517314
404.0,0.2133541682752368
405.0,0.21351666974540406
406.0,0.2139575451096673
407.0,0.214215414381421
408.0,0.21465727602999782
409.0,0.2153788931734423
410.0,0.215812117505406
411.0,0.2164075767824492
412.0,0.21712226680089436
413.0,0.2178023160638693
414.0,0.21837905045942532
415.0,0.21890450079301263
416.0,0.21936530356087483
417.0,0.21975020529221667
418.0,0.22031115020650924
419.0,0.22089921071765972
420.0,0.22148720049639703
421.0,0.22221188168789915
422.0,0.22291714574131655
423.0,0.22368830220053726
424.0,0.22456534193798777
425.0,0.2253955822733568
426.0,0.22612426243270733
427.0,0.2267043912694489
428.0,0.22713931923508557
429.0,0.22756475869134676
430.0,0.22808181394742733
431.0,0.2289092599749244
432.0,0.2302730461770793
433.0,0.2317857338222946
434.0,0.23318086051868633
435.0,0.23432885615057886
436.0,0.2352478069677011
437.0,0.23595533814258
438.0,0.23657767700736718
439.0,0.2372805896259068
440.0,0.2382633737427259
441.0,0.23941799719009457
442.0,0.2406003144141988
443.0,0.24164002790548775
444.0,0.24232643211104854
445.0,0.24286794218863436
446.0,0.24342778622627737
447.0,0.24406595925924243
448.0,0.24493369156111958
449.0,0.24581523332437974
450.0,0.24648516654699557
451.0,0.24689814718313163
452.0,0.24710204296956007
453.0,0.24722152854821153
454.0,0.2474269119546064
455.0,0.24791260425976713
456.0,0.24843424990964308
457.0,0.2487980139767823
458.0,0.2489208438503243
459.0,0.24908007369027213
460.0,0.24934632698826922
461.0,0.24969029495809594
462.0,0.24997349331342192
463.0,0.2501740897023104
464.0,0.25030793328478
465.0,0.2504259464014407
466.0,0.25062975260740933
467.0,0.250833593468189
468.0,0.251028210051452
469.0,0.25126774803045376
470.0,0.2514785811373114
471.0,0.25177196584813333
472.0,0.25219009320623376
473.0,0.25262116396884876
474.0,0.25287420262663113
475.0,0.25307815376832665
476.0,0.2534018998376017
477.0,0.25370157161222345
478.0,0.2541387079533482
479.0,0.2546763026215869
480.0,0.25515204671931574
481.0,0.25566561588622466
482.0,0.256256901813204
483.0,0.2568450825590076
484.0,0.2571571811150047
485.0,0.2571860538821811
486.0,0.257296908903608
487.0,0.25791722842543524
488.0,0.2592344796756099
489.0,0.2604890263731593
490.0,0.2613196669558419
491.0,0.2617455058853131
492.0,0.2621640059427517
493.0,0.26285939737375724
494.0,0.26387680476050407
495.0,0.2649565327676301
496.0,0.2658213436016499
497.0,0.2665735270271435
498.0,0.2673919427589127
499.0,0.26825516711581343
500.0,0.26910124594364654
501.0,0.2699515428286091
502.0,0.27088733165463036
503.0,0.27199455764606456
504.0,0.27316338665194706
505.0,0.2743023037568921
506.0,0.2753992851560281
507.0,0.2762443230171598
508.0,0.2770593272197798
509.0,0.27809610599915346
510.0,0.27926334953798615
511.0,0.28040633510383944
512.0,0.28145194369730514
513.0,0.28242497730774113
514.0,0.28369439002655644
515.0,0.28490980798778637
516.0,0.28581374983457064
517.0,0.2864343414256028
518.0,0.2876051528208658
519.0,0.28931579294439386
520.0,0.29113238798043434
521.0,0.2923314834376457
522.0,0.2933319450892136
523.0,0.2945042653598684
524.0,0.2960614935187368
525.0,0.29719655555589125
526.0,0.2979924272846275
527.0,0.2988629810398926
528.0,0.300569478859222
529.0,0.3024456510985811
530.0,0.3040676511592388
531.0,0.30525631144905985
532.0,0.30623458323017516
533.0,0.30752638381098907
534.0,0.30922953602465053
535.0,0.3110596918820704
536.0,0.3125073343683013
537.0,0.313842523056577
538.0,0.315288430560538
539.0,0.3166893806057628
540.0,0.318022621705314
541.0,0.31946122385903547
542.0,0.3211314862823443
543.0,0.3225834121044515
544.0,0.3239379039167469
545.0,0.32526914761971726
546.0,0.3265691479057208
547.0,0.3277771257229123
548.0,0.3291221837476743
549.0,0.33073007577331814
550.0,0.3324089923632701
551.0,0.33399504109899425
552.0,0.3355710623408392
553.0,0.33730335341268625
554.0,0.339177363217571
555.0,0.3409885733798826
556.0,0.34260584780348063
557.0,0.3439974854051822
558.0,0.3452928758641233
559.0,0.34665454900671017
560.0,0.3481271948216017
561.0,0.3494889263761495
562.0,0.3505866854447152
563.0,0.35149285065054575
564.0,0.35236265888626545
565.0,0.3529982806857227
566.0,0.35368134744763036
567.0,0.35453159085554203
568.0,0.35540909091563894
569.0,0.3563580610787692
570.0,0.35772172386714546
571.0,0.3597255713121151
572.0,0.36211687059340736
573.0,0.36417479436728223
574.0,0.3655992862978823
575.0,0.36645324976604826
576.0,0.3673794053721663
577.0,0.3682348812383993
578.0,0.36897827275326284
579.0,0.36988558254976034
580.0,0.37059295459424385
581.0,0.37108966586700104
582.0,0.37151418118880425
583.0,0.37209703950116196
584.0,0.3727766561860687
585.0,0.37358767456176095
586.0,0.37457382212944484
587.0,0.37521871199675366
588.0,0.3751581361386392
589.0,0.3747179598946059
590.0,0.3754730429021431
591.0,0.37642136742252863
592.0,0.37715793646995355
593.0,0.37763274542663583
594.0,0.378304455495154
595.0,0.37911244308324704
596.0,0.3799179785883819
597.0,0.38054808735169904
598.0,0.38100672862626433
599.0,0.38148847160946114
600.0,0.3820677197375947
601.0,0.38246927603009284
602.0,0.3829121662444136
603.0,0.38338064635756236
604.0,0.38375011202051945
605.0,0.38381240844678743
606.0,0.38388515589776395
607.0,0.38408347707124724
608.0,0.3842784183009056
609.0,0.38441613957786935
610.0,0.3846484901630665
611.0,0.38504399969900127
612.0,0.3853321223284696
613.0,0.38567671475253745
614.0,0.3860437414558017
615.0,0.38631716771317176
616.0,0.38648173590345014
617.0,0.3868173103413296
618.0,0.3873024648685949
619.0,0.38753792195332004
620.0,0.3878443602848253
621.0,0.3881140301553468
622.0,0.38825425926347995
623.0,0.38853842289070334
624.0,0.3888243168386041
625.0,0.389148248117066
626.0,0.3896071369356969
627.0,0.38987590099675734
628.0,0.39012908941990737
629.0,0.3904730296721792
630.0,0.3908212774798077
631.0,0.3911224900934794
632.0,0.3913564691836727
633.0,0.39154341173886387
634.0,0.3917969580755645
635.0,0.39202286343968296
636.0,0.392230601261195
637.0,0.3924947963806076
638.0,0.39278780363821775
639.0,0.3930123499240267
640.0,0.3931576910246593
641.0,0.3933655117525842
642.0,0.39371680827284733
643.0,0.3940422097649414
644.0,0.3941752790242321
645.0,0.39431677143935845
646.0,0.39450916446242024
647.0,0.3947824447806328
648.0,0.39513871380842813
649.0,0.3953690846203978
650.0,0.3955542104268134
651.0,0.39576525920378347
652.0,0.39595297519405326
653.0,0.3962579025903849
654.0,0.39647832957939616
655.0,0.3964058913339036
656.0,0.3963839838666289
657.0,0.39702767329779176
658.0,0.3978783957690725
659.0,0.3977993116092688
660.0,0.3978007833236951
661.0,0.3979844643764609
662.0,0.39823950223644233
663.0,0.3982915466806818
664.0,0.3985097817395257
665.0,0.3988445625968149
666.0,0.3990983402664231
667.0,0.39921781708600207
668.0,0.399356608924748
669.0,0.3995540242603444
670.0,0.39972663155219584
671.0,0.3998431137382482
672.0,0.4000054994385516
673.0,0.40027552416493734
674.0,0.4005741166752357
675.0,0.40081775460268215
676.0,0.40101554605027356
677.0,0.4012162870381927
678.0,0.40143134039674633
679.0,0.40160078374431984
680.0,0.4017356984267593
681.0,0.40192168245163795
682.0,0.4021573559718499
683.0,0.4023604053285797
684.0,0.40255178346276027
685.0,0.40313911422446813
686.0,0.4031442475268896
687.0,0.4030735821864186
688.0,0.4040200313610516
689.0,0.40462301633659953
690.0,0.40486989177570126
691.0,0.40494996292321295
692.0,0.4050270730878618
693.0,0.40513960556566614
694.0,0.4052926360218477
695.0,0.4054754954700694
696.0,0.405685153808878
697.0,0.4058193039498663
698.0,0.4060033693196143
699.0,0.40638011312468403
700.0,0.40662563901042814
701.0,0.4067706064351957
702.0,0.40691856055069087
703.0,0.4072031111015725
704.0,0.40744972545232394
705.0,0.4076487062191161
706.0,0.40782450000169906
707.0,0.4080043230892517
708.0,0.40809961976710396
709.0,0.40822616168245013
710.0,0.4085340846777858
711.0,0.408925316305276
712.0,0.40917919472781045
713.0,0.4093004275307758
714.0,0.4095116457939649
715.0,0.4098832417695543
716.0,0.41033283909024565
717.0,0.41080949929525484
718.0,0.41137569792757234
719.0,0.41172906382128094
720.0,0.4119550071534165
721.0,0.412247168752613
722.0,0.4123843071311127
723.0,0.4124663780128
724.0,0.412666374719148
725.0,0.4131585175934198
726.0,0.4134825246892012
727.0,0.41363856374730484
728.0,0.4137516753403756
729.0,0.41400258443937127
730.0,0.4142614295596074
731.0,0.41449414088731534
732.0,0.41467942974528244
733.0,0.41472317776698886
734.0,0.41485785611945775
735.0,0.41506815535223923
736.0,0.4152043888357405
737.0,0.4155024159800301
738.0,0.4158236874629316
739.0,0.4160556418292995
740.0,0.41618074675371
741.0,0.41628597412904694
742.0,0.4164895104548542
743.0,0.4168170483358656
744.0,0.4170196018744726
745.0,0.4172507022501589
746.0,0.4175551483312229
747.0,0.41788733472856504
748.0,0.41800673662953325
749.0,0.4181620378737549
750.0,0.4184475788971541
751.0,0.41873529960089584
752.0,0.41908097193788385
753.0,0.4193668563384452
754.0,0.4195355813209329
755.0,0.4197268960523186
756.0,0.419960856372785
757.0,0.42047149134635325
758.0,0.4213759817941142
759.0,0.42176703454406395
760.0,0.421462284465308
761.0,0.42171872444021874
762.0,0.42572599663677574
763.0,0.4255963535113544
764.0,0.4246997983045159
765.0,0.4245758155053859
766.0,0.4240364257076131
767.0,0.4236927590762201
768.0,0.42342354602864857
769.0,0.4231586503506925
770.0,0.4231316491564371
771.0,0.4232764730667112
772.0,0.4234314042401303
773.0,0.4234437978820473
774.0,0.4235888559017503
775.0,0.4237444210573296
776.0,0.4238755093577723
777.0,0.4240584456473655
778.0,0.4241524244328751
779.0,0.42425846352080104
780.0,0.4244390917850875
781.0,0.42459797505019353
782.0,0.42477071693957336
783.0,0.4249264821342356
784.0,0.4250479210817837
785.0,0.42524258713698754
786.0,0.42542807146052913
787.0,0.4255815888444774
788.0,0.42571960126146735
789.0,0.42585446213410355
790.0,0.42598990139389514
791.0,0.4261096103712862
792.0,0.42618281910281786
793.0,0.4263012471320541
794.0,0.4264161478066436
795.0,0.42650152929144747
796.0,0.4266360541767164
797.0,0.42680010060932844
798.0,0.42693112576238246
799.0,0.4269925253874364
800.0,0.42708717815550556
801.0,0.42717709883392174
802.0,0.427290320325643
803.0,0.42746070657680646
804.0,0.4274690077098526
805.0,0.42755075625081784
806.0,0.4277567266920383
807.0,0.42791002480141455
808.0,0.4279401763397821
809.0,0.4279503226064177
810.0,0.42807976769314865
811.0,0.4284691762204
812.0,0.42878592730058324
813.0,0.42899618148767404
814.0,0.42914202081375935
815.0,0.429184504540128
816.0,0.42921245601059743
817.0,0.4292684398725737
818.0,0.42933171126091035
819.0,0.4291546914169516
820.0,0.4296359213785243
821.0,0.4302652200060739
822.0,0.4296529134002544
823.0,0.4287237060766977
824.0,0.42898369467154474
825.0,0.4301672085352958
826.0,0.4300904290709482
827.0,0.4296781669156418
828.0,0.4293376439108459
829.0,0.4293278642510944
830.0,0.42968991661227807
831.0,0.42974797862767766
832.0,0.4295903129068589
833.0,0.4295151723812076
834.0,0.4295842173517588
835.0,0.42958095887613795
836.0,0.4295401756520875
837.0,0.4295804711508452
838.0,0.4295348928415118
839.0,0.42962681994891677
840.0,0.42975553204715017
841.0,0.42961419826787134
842.0,0.4296115718169909
843.0,0.4296420181153324
844.0,0.42964759838229744
845.0,0.4297029814657917
846.0,0.42973716883667085
847.0,0.4298247990379475
848.0,0.4298948272436383
849.0,0.42954235743964997
850.0,0.4294613400154935
851.0,0.4299832419228319
852.0,0.4307868471571693
853.0,0.4300485094618309
854.0,0.42912124325905937
855.0,0.42907531325868353
856.0,0.4301787755929555
857.0,0.4305461694299705
858.0,0.4304759030037986
859.0,0.4302266700268432
860.0,0.4300435178820131
861.0,0.43020167243497137
862.0,0.43047542173088654
863.0,0.4307432284576792
864.0,0.4309430373200205
865.0,0.43029222999756767
866.0,0.4297261684788751
867.0,0.4298571797553523
868.0,0.4304756598655378
869.0,0.43088152264731217
870.0,0.43095494113571076
871.0,0.43085397665276737
872.0,0.4309501708683943
873.0,0.43099865323944114
874.0,0.4310024013774359
875.0,0.4310166234559275
876.0,0.4310831727518074
877.0,0.4312360637377489
878.0,0.4313072676799302
879.0,0.43122674765559205
880.0,0.43139226957495747
881.0,0.4315236800925137
882.0,0.4316899363542182
883.0,0.4319959936858922
884.0,0.43219825500176934
885.0,0.4321744416264753
886.0,0.43198423728308183
887.0,0.43182558654119024
888.0,0.4319951256524155
889.0,0.4323484345774168
890.0,0.4326775652891803
891.0,0.4328039152057753
892.0,0.43284373917748487
893.0,0.4330309794019745
894.0,0.43332664797470316
895.0,0.4334443226014217
896.0,0.4332146922294328
897.0,0.4331589665864672
898.0,0.43335186703746353
899.0,0.43328912759174815
900.0,0.43288981110498
901.0,0.43307650026689254
902.0,0.4341476610623709
903.0,0.43553285740291897
904.0,0.4367294388605129
905.0,0.4371357180693499
906.0,0.43650413781878933
907.0,0.4351089211924905
908.0,0.4343203821480635
909.0,0.43443428707879556
910.0,0.43525296122576707
911.0,0.4362600440283286
912.0,0.43670772638826333
913.0,0.43665632570785773
914.0,0.43643435689806825
915.0,0.43642298755993514
916.0,0.43617961352423046
917.0,0.43622264468525057
918.0,0.4367825542645481
919.0,0.4372047771036581
920.0,0.4379674373763746
921.0,0.4382928027184126
922.0,0.43781127899813815
923.0,0.43752800712257817
924.0,0.43795464817655766
925.0,0.43901686193264416
926.0,0.4403121581250804
927.0,0.4412362206984487
928.0,0.4413454588031427
929.0,0.4408003538031942
930.0,0.43995335842830935
931.0,0.4389985717074771
932.0,0.4369974012747552
933.0,0.43491458630082863
934.0,0.434204558038991
935.0,0.4344639405787859
936.0,0.43554706955382216
937.0,0.4377747749830036
938.0,0.441164212852184
939.0,0.44511541071028354
940.0,0.44633911577500623
941.0,0.44494691334942116
942.0,0.4422725509343915
943.0,0.44026918484474326
944.0,0.439122281720778
945.0,0.43920414227255694
946.0,0.4404002506593752
947.0,0.44177425113626634
948.0,0.4429452874860711
949.0,0.4432447534010317
950.0,0.44276114444081843
951.0,0.44297457689936726
952.0,0.4437258549476214
953.0,0.44393813428153567
954.0,0.4434287208922757
955.0,0.44398360378543655
956.0,0.44405883684604197
957.0,0.44401854941982816
958.0,0.4439694273281716
959.0,0.44305793170392127
960.0,0.44406745561214134
961.0,0.4455085200926149
962.0,0.44579326067307196
963.0,0.4447233315521246
964.0,0.44466690832613587
965.0,0.4453358054133364
966.0,0.4461942818934907
967.0,0.4470402974124871
968.0,0.44788432691742447
969.0,0.4487794300420282
970.0,0.4491227470315175
971.0,0.4479651402607661
972.0,0.44709501283644965
973.0,0.4464166943484733
974.0,0.44610851599087575
975.0,0.4466360888484429
976.0,0.44728791977113125
977.0,0.448183465806916
978.0,0.44881777106328097
979.0,0.4485769983511743
980.0,0.4487870214497128
981.0,0.4495185729608421
982.0,0.45028865310906696
983.0,0.45051961638670485
984.0,0.4504295932961529
985.0,0.4502137894686202
986.0,0.45004202427116374
987.0,0.45002453218699223
988.0,0.4501721422998637
989.0,0.4503534068414442
990.0,0.4507583034018714
991.0,0.45129185462696336
992.0,0.450957419797789
993.0,0.4505447699859609
994.0,0.45092583310182754
995.0,0.4521594386198457
996.0,0.45292041761786966
997.0,0.4522338995309717
998.0,0.4517379329219563
999.0,0.4522005325749578
1000.0,0.45256300447724496
1001.0,0.44689131543044386
1002.0,0.4470992390088393
1003.0,0.4473877033886878
1004.0,0.44770668837432576
1005.0,0.4482183440748863
1006.0,0.44908652889390205
1007.0,0.4495148943229357
1008.0,0.4499228326196033
1009.0,0.45014974613259706
1010.0,0.4500232998267813
1011.0,0.44989561249699467
1012.0,0.4500490546771536
1013.0,0.4500298769470002
1014.0,0.44990705366916206
1015.0,0.45032668942032944
1016.0,0.45047688831626714
1017.0,0.450293537212362
1018.0,0.45064694188654825
1019.0,0.45133654536308804
1020.0,0.4517543586297135
1021.0,0.452115109408548
1022.0,0.4531392615986961
1023.0,0.4536886726418096
1024.0,0.45387661660261613
1025.0,0.4545192114694036
1026.0,0.45503939210655336
1027.0,0.45538151865231935
1028.0,0.45560454127118233
1029.0,0.45576110926143865
1030.0,0.4557023663453336
1031.0,0.45586411632979107
1032.0,0.4561644549467097
1033.0,0.4565682273335525
1034.0,0.4571367409928673
1035.0,0.4575310574699074
1036.0,0.45792130958343785
1037.0,0.4582722926018791
1038.0,0.4584302424431633
1039.0,0.4585845041675595
1040.0,0.4591679855808656
1041.0,0.4598180200537191
1042.0,0.46022997245341557
1043.0,0.4608845818658104
1044.0,0.4611920231972976
1045.0,0.46082802728996286
1046.0,0.46092519453718517
1047.0,0.4612054103909024
1048.0,0.46125498816717914
1049.0,0.46134539008199604
1050.0,0.46162982560831967
1051.0,0.4617900623863673
1052.0,0.4620168728894093
1053.0,0.4627600315600754
1054.0,0.4630639670050314
1055.0,0.46311066258748007
1056.0,0.4633068058634499
1057.0,0.4631804516221555
1058.0,0.4632218337510733
1059.0,0.46356314592575937
1060.0,0.4634647646994432
1061.0,0.46338613663567096
1062.0,0.46348337556437824
1063.0,0.46356482919905345
1064.0,0.4635448779552671
1065.0,0.4637934417719696
1066.0,0.46391347171139397
1067.0,0.4638725479738936
1068.0,0.4640101094076768
1069.0,0.46417518820658016
1070.0,0.4645879507052153
1071.0,0.46512089626381936
1072.0,0.4652817075337234
1073.0,0.4652483855317373
1074.0,0.46522177432433603
1075.0,0.4652354318408678
1076.0,0.4655002368665236
1077.0,0.46585072702297825
1078.0,0.4660406400420637
1079.0,0.46621046590960025
1080.0,0.466323183397061
1081.0,0.466359505849365
1082.0,0.4664426757772229
1083.0,0.46667493811018046
1084.0,0.4668930565354754
1085.0,0.46685410398626276
1086.0,0.46681339582242576
1087.0,0.4670475398944402
1088.0,0.4673239200574464
1089.0,0.46759572452196807
1090.0,0.4678507336429821
1091.0,0.4679637132424995
1092.0,0.4679827491882699
1093.0,0.4681815108490449
1094.0,0.46845796851328364
1095.0,0.4688699968060409
1096.0,0.46929380904529244
1097.0,0.46972668665065276
1098.0,0.47014789625164377
1099.0,0.4707152901888633
1100.0,0.4711393674004412
1101.0,0.47164919024383783
1102.0,0.47236045805224014
1103.0,0.472837700285874
1104.0,0.47314417947077597
1105.0,0.4734873842944764
1106.0,0.473758666475114
1107.0,0.4739951409471311
1108.0,0.4743884357361869
1109.0,0.4748041420337933
1110.0,0.4754460271547189
1111.0,0.4759074459900668
1112.0,0.47640310246429485
1113.0,0.47673166063546873
1114.0,0.4770759352528932
1115.0,0.47705800988782476
1116.0,0.4772999733194244
1117.0,0.4780623066424828
1118.0,0.478860399234678
1119.0,0.48015251018582006
1120.0,0.4811533608543971
1121.0,0.4820229980737424
1122.0,0.48329692896524495
1123.0,0.48411398055656624
1124.0,0.4847343586948466
1125.0,0.48519069886604166
1126.0,0.48589000803467164
1127.0,0.48624418111639983
1128.0,0.4870910683470835
1129.0,0.4882517861638248
1130.0,0.48961517023220485
