Wavelength (nm),Reflectance
350.0,0.12273868850566404
351.0,0.12287190540379452
352.0,0.12307929402947225
353.0,0.12336731652661956
354.0,0.12347485410722794
355.0,0.12385120989202467
356.0,0.12435230455676732
357.0,0.12432306921657674
358.0,0.12441610239452223
359.0,0.12471550605357971
360.0,0.12521689783296905
361.0,0.1259329402791228
362.0,0.1262862802156428
363.0,0.1263117203117721
364.0,0.12629083142661565
365.0,0.12671235487911353
366.0,0.1270781452884169
367.0,0.12742330597396506
368.0,0.1279190411740062
369.0,0.12845139968591832
370.0,0.12895131756425585
371.0,0.12944897643668762
372.0,0.13001740056013866
373.0,0.1304646958952157
374.0,0.1309153243010099
375.0,0.1314105762677145
376.0,0.13187350125841205
377.0,0.1327470614144886
378.0,0.13366495539123455
379.0,0.13429585112104664
380.0,0.1346570804224878
381.0,0.13532031733632702
382.0,0.13627415388736763
383.0,0.13726054601726914
384.0,0.13799554339492567
385.0,0.1385926995818034
386.0,0.1393271178646583
387.0,0.14037140987195879
388.0,0.14090761130341353
389.0,0.1412664636968379
390.0,0.1418476001520497
391.0,0.14293438361593697
392.0,0.14368491550439438
393.0,0.14431242151556756
394.0,0.1450273038783516
395.0,0.14576154712306774
396.0,0.14635948495196002
397.0,0.14690351637058374
398.0,0.14745676340864697
399.0,0.14786406077452297
400.0,0.1482812862769894
401.0,0.14873054715562645
402.0,0.14918611668338363
403.0,0.14966122020842998
404.0,0.15019766269514606
405.0,0.15079622970189768
406.0,0.15141679690219098
407.0,0.15198008335670407
408.0,0.15253557129701087
409.0,0.15312500307126392
410.0,0.15374357106296258
411.0,0.15432892040653412
412.0,0.15488239396324605
413.0,0.15542681769923528
414.0,0.1559871627052276
415.0,0.15650461391397183
416.0,0.15701777250957566
417.0,0.15760910920621188
418.0,0.15827939888853998
419.0,0.15895841617392878
420.0,0.15961451589997858
421.0,0.1602676853088459
422.0,0.1609913895287204
423.0,0.1616970709335082
424.0,0.1623393750806445
425.0,0.163028464972273
426.0,0.1637581994531671
427.0,0.16455506816639823
428.0,0.16543654371995448
429.0,0.16635049732874307
430.0,0.16728816366345253
431.0,0.16820347684672277
432.0,0.16904058051418058
433.0,0.16990791188732682
434.0,0.17076320631207698
435.0,0.1715945594745723
436.0,0.17245762954379798
437.0,0.17333038038102788
438.0,0.17419614870993372
439.0,0.1750325678850314
440.0,0.17580364274010762
441.0,0.1765342394656809
442.0,0.17725595708656025
443.0,0.17799765076523152
444.0,0.17874895078323538
445.0,0.17945922505839773
446.0,0.1801061622463933
447.0,0.18070197300003119
448.0,0.1812205838382339
449.0,0.1816986842278506
450.0,0.1821620166579975
451.0,0.18257706669178775
452.0,0.18296670282785266
453.0,0.18335914008971768
454.0,0.1837648326909844
455.0,0.18408544839832225
456.0,0.1843592908602477
457.0,0.18462828410939885
458.0,0.18492285917280651
459.0,0.18517922355175945
460.0,0.1854023450102329
461.0,0.18561875858604426
462.0,0.18587647133760546
463.0,0.18608431035671755
464.0,0.1862555564382412
465.0,0.18644390660617474
466.0,0.1866936419791956
467.0,0.18696635739333198
468.0,0.18722769286699317
469.0,0.187459110297425
470.0,0.18773555269607362
471.0,0.1879975293222336
472.0,0.18821650039849933
473.0,0.18845091054293986
474.0,0.18870736364638066
475.0,0.18898909741343
476.0,0.18929984811809095
477.0,0.18966293272032286
478.0,0.19001160222398905
479.0,0.19036293342926022
480.0,0.19078183943391464
481.0,0.19117394211456706
482.0,0.1915830771526294
483.0,0.19203069606850126
484.0,0.19246373211618048
485.0,0.193004983425493
486.0,0.1935787983399564
487.0,0.19409328455223354
488.0,0.19465711813012831
489.0,0.19520790770122043
490.0,0.19573556798230798
491.0,0.19627729536835717
492.0,0.19690482352823283
493.0,0.19757188281159255
494.0,0.19823024200422487
495.0,0.19885082372251237
496.0,0.19956101356380065
497.0,0.2002767635726925
498.0,0.20092040581109433
499.0,0.20164122101928797
500.0,0.20237571459261663
501.0,0.20312337287974905
502.0,0.20391707267372003
503.0,0.20470597126007659
504.0,0.20544225722008158
505.0,0.20614218282913713
506.0,0.20691362597923632
507.0,0.20769486297405712
508.0,0.2084805085153553
509.0,0.20927117041352228
510.0,0.21002270989327942
511.0,0.21081465081634837
512.0,0.2116356941309893
513.0,0.21242393108169633
514.0,0.213245467681152
515.0,0.21411252371565262
516.0,0.21500911180308138
517.0,0.21588013512082196
518.0,0.21670564012903712
519.0,0.21752331204023995
520.0,0.21836544726269544
521.0,0.21919377065793455
522.0,0.22003450264955846
523.0,0.22087214767024568
524.0,0.22167384156561623
525.0,0.22261274782543772
526.0,0.22354956154187397
527.0,0.22441049023073265
528.0,0.22531948168264918
529.0,0.22621156639470102
530.0,0.22707137684806436
531.0,0.22793190615872452
532.0,0.22888481229578458
533.0,0.2298688093981629
534.0,0.2308289752060388
535.0,0.2317368811672792
536.0,0.23266926243844382
537.0,0.23360322987881604
538.0,0.23453507673717244
539.0,0.23550089849831846
540.0,0.23643779714601626
541.0,0.2373611425683151
542.0,0.23829783233576654
543.0,0.23917149426809967
544.0,0.2400176961563098
545.0,0.24085821152728018
546.0,0.24168897762544803
547.0,0.24252545146676302
548.0,0.2433580400140038
549.0,0.24418482457579407
550.0,0.24503846631589637
551.0,0.24587031861680828
552.0,0.2466902038602086
553.0,0.24752108339089812
554.0,0.24833223244770952
555.0,0.24911622628869956
556.0,0.24990003874387468
557.0,0.25073983191438226
558.0,0.2515345902452461
559.0,0.2522837841541443
560.0,0.2530026598444393
561.0,0.253695413485129
562.0,0.2543400359020287
563.0,0.2549490419225157
564.0,0.2555492396094723
565.0,0.2561426163800591
566.0,0.2567193259562695
567.0,0.25728011006124646
568.0,0.2578423651701137
569.0,0.25843500508030187
570.0,0.25903611617090866
571.0,0.2596058494043467
572.0,0.2601137398259305
573.0,0.2605995495855267
574.0,0.26107516348932985
575.0,0.2615362336656819
576.0,0.26199473111963123
577.0,0.2624295548408382
578.0,0.2628573827469862
579.0,0.26336122106655674
580.0,0.26381575535497714
581.0,0.2642209082317297
582.0,0.26461858813809186
583.0,0.2650457000119695
584.0,0.2655081367189593
585.0,0.2659505211329613
586.0,0.2662850565116396
587.0,0.2666004206396605
588.0,0.2669529608453165
589.0,0.26732785650778074
590.0,0.26757169380635504
591.0,0.26780399984834297
592.0,0.26803982530921894
593.0,0.2682732709402018
594.0,0.26852646565548827
595.0,0.2687544498319764
596.0,0.2689782230090423
597.0,0.26927135838997773
598.0,0.26952677356261995
599.0,0.26973424434417437
600.0,0.26992459889184767
601.0,0.27019036821906045
602.0,0.2703919856248954
603.0,0.270541737275482
604.0,0.27070807420081033
605.0,0.2709081198841947
606.0,0.27105732110029884
607.0,0.27117464316674356
608.0,0.27138554507867374
609.0,0.27155637962582574
610.0,0.2716692355210463
611.0,0.2717560560482596
612.0,0.27191562649152456
613.0,0.2720612497356
614.0,0.27217872195142057
615.0,0.27229419345682876
616.0,0.27246368359945894
617.0,0.2725840471823863
618.0,0.2726393584083987
619.0,0.27273898022445503
620.0,0.27283196146909355
621.0,0.27292426189411334
622.0,0.27302164675357404
623.0,0.2730879209008387
624.0,0.27318157107001984
625.0,0.27330114524173876
626.0,0.2734011521259519
627.0,0.2734047017305185
628.0,0.27340808856905563
629.0,0.2734825949087653
630.0,0.2736279984955762
631.0,0.27378485793033985
632.0,0.27394847218531665
633.0,0.27411829681384725
634.0,0.2742498081239581
635.0,0.27434450480033273
636.0,0.27443671867715175
637.0,0.274574054567898
638.0,0.2747016776400354
639.0,0.27482946898281124
640.0,0.27497127095661983
641.0,0.2751330722299268
642.0,0.27522460482074934
643.0,0.2752935320468681
644.0,0.27540573611117636
645.0,0.27549076497070685
646.0,0.2755548033966933
647.0,0.2756177202850371
648.0,0.2757098090320833
649.0,0.2758590280097112
650.0,0.27600610192951536
651.0,0.2761119605895369
652.0,0.27620658030538703
653.0,0.2763309902176324
654.0,0.2764933082463754
655.0,0.2766847576986476
656.0,0.27686281304439464
657.0,0.2769803042113147
658.0,0.2770635015278259
659.0,0.27721175966455575
660.0,0.2773473744064462
661.0,0.27749021184395867
662.0,0.2776444557520568
663.0,0.27775356328481937
664.0,0.2778758318348179
665.0,0.2780191024213162
666.0,0.27817197471375027
667.0,0.27833329980873417
668.0,0.27844828140102595
669.0,0.27852979752965423
670.0,0.27865614627745466
671.0,0.27877221215474757
672.0,0.2788890047873221
673.0,0.27901984716770206
674.0,0.2791606649035199
675.0,0.27928818066059
676.0,0.279410414518285
677.0,0.2795435042567242
678.0,0.2796695001880448
679.0,0.2797872969106013
680.0,0.27989233270640235
681.0,0.27997918072005124
682.0,0.2801466601423974
683.0,0.2803315523375469
684.0,0.2804563452141689
685.0,0.2805052118837133
686.0,0.2803712004839641
687.0,0.2801005879558415
688.0,0.2799316457587226
689.0,0.2802407069987709
690.0,0.28057914051062144
691.0,0.28078950190241747
692.0,0.281008369546374
693.0,0.2811315483966912
694.0,0.2812321275686311
695.0,0.28139151677888685
696.0,0.28165226949143307
697.0,0.2819221176322883
698.0,0.2821012476245733
699.0,0.2821335399370598
700.0,0.2822416924220349
701.0,0.2823971189755726
702.0,0.2825652165605471
703.0,0.28272736435297124
704.0,0.282955122931923
705.0,0.2831811796146671
706.0,0.2833531240290366
707.0,0.28349821622957344
708.0,0.2836643651105627
709.0,0.2838348468419208
710.0,0.2839774844218796
711.0,0.28414189778829074
712.0,0.28430821908359166
713.0,0.284470341660749
714.0,0.28463395207496317
715.0,0.2847362442221141
716.0,0.2846666239505508
717.0,0.28440772413484805
718.0,0.2841996674157882
719.0,0.2842528943686663
720.0,0.2846119788995152
721.0,0.28511201002642034
722.0,0.2854846582398441
723.0,0.28558075539114514
724.0,0.2855107088742817
725.0,0.2855987447740871
726.0,0.2857919788223006
727.0,0.2860364027272238
728.0,0.28628010053794606
729.0,0.28646599639960774
730.0,0.28663997830189064
731.0,0.2868899657089646
732.0,0.2872596910374362
733.0,0.28762987743556956
734.0,0.2879038789291692
735.0,0.2880922325880953
736.0,0.28826732220023715
737.0,0.2884941671208877
738.0,0.28875314486561404
739.0,0.28900004125371515
740.0,0.28916570131507546
741.0,0.28938933812508794
742.0,0.2896129618529482
743.0,0.28977684438838525
744.0,0.2899900683050718
745.0,0.2902014740100893
746.0,0.29038922775486403
747.0,0.29055806409222096
748.0,0.29078379089628104
749.0,0.29099926846066665
750.0,0.2911743774031757
751.0,0.29133544603071254
752.0,0.2914989528321906
753.0,0.29165776584629255
754.0,0.2918133849261486
755.0,0.2919988137057799
756.0,0.2922316802831274
757.0,0.29244397391724253
758.0,0.292504877859812
759.0,0.2919889327827264
760.0,0.29052082304719445
761.0,0.2882700477198919
762.0,0.28883162214092306
763.0,0.2893567350691633
764.0,0.2902829789273663
765.0,0.2915621402992977
766.0,0.2926235736299925
767.0,0.2933703266197994
768.0,0.29387044899213394
769.0,0.2941907087350958
770.0,0.29442599182037815
771.0,0.2946169973338518
772.0,0.29477534410875733
773.0,0.2949070735782052
774.0,0.29506230496621927
775.0,0.29525342596279663
776.0,0.2954335826322929
777.0,0.2955176707449406
778.0,0.2956722612872383
779.0,0.2958288362850123
780.0,0.2959323137525601
781.0,0.2960397825142185
782.0,0.29615730601877666
783.0,0.29626827907881387
784.0,0.29635451827394915
785.0,0.2964254419292607
786.0,0.29652019422352194
787.0,0.29663529393038396
788.0,0.2967350764731286
789.0,0.2967607424630926
790.0,0.2968311837312571
791.0,0.2969719946866824
792.0,0.2970856570754296
793.0,0.29720180412613445
794.0,0.2973015048478606
795.0,0.29736575948480454
796.0,0.2973869741482943
797.0,0.2974493108062438
798.0,0.2975267122625658
799.0,0.29757617117508867
800.0,0.2976325481262113
801.0,0.2977111720571947
802.0,0.2977943939592189
803.0,0.2978560786047235
804.0,0.2979450705336151
805.0,0.298062945535406
806.0,0.29817769751184325
807.0,0.2982339378814775
808.0,0.29823288997613323
809.0,0.29822968270443073
810.0,0.29823541819635124
811.0,0.2981621879519949
812.0,0.29805205359829046
813.0,0.2978580349203691
814.0,0.29757295485506163
815.0,0.29741488539005706
816.0,0.2974032243437528
817.0,0.2974727629782676
818.0,0.29755049251673726
819.0,0.2978533066027396
820.0,0.29799753559660686
821.0,0.2979546225969376
822.0,0.29796130618644606
823.0,0.2979689994813214
824.0,0.29808462436527977
825.0,0.2982690884740367
826.0,0.29832848020179864
827.0,0.2982350793773673
828.0,0.2981537776938398
829.0,0.2981873749164516
830.0,0.2981787904879383
831.0,0.29816226267843454
832.0,0.29815971282210973
833.0,0.2981968770391469
834.0,0.2983148418238585
835.0,0.29843556638342217
836.0,0.298522535237524
837.0,0.29856707206330435
838.0,0.298572858223043
839.0,0.2985554049455063
840.0,0.2985454044797777
841.0,0.2985740435230989
842.0,0.2985861714888056
843.0,0.29856758130060695
844.0,0.2985257469140748
845.0,0.2984892565641031
846.0,0.2985136561502387
847.0,0.2985754385242404
848.0,0.29861996513125605
849.0,0.29856535649356025
850.0,0.29857296651349546
851.0,0.2986118201686431
852.0,0.2986114605080557
853.0,0.2985617491913233
854.0,0.2985091176029324
855.0,0.29845051671565226
856.0,0.29839286561055867
857.0,0.2984666636914062
858.0,0.2985194396519368
859.0,0.29849094900020645
860.0,0.2984014584335626
861.0,0.2983962190579128
862.0,0.29841208538227687
863.0,0.2983803437255615
864.0,0.29826017821917616
865.0,0.29817248707084104
866.0,0.29812226577615997
867.0,0.29807406835506844
868.0,0.29797699054965016
869.0,0.29800645764539047
870.0,0.2980079945249666
871.0,0.2979444336827013
872.0,0.298030576448717
873.0,0.2980188081536732
874.0,0.2980144289225051
875.0,0.2980769414171562
876.0,0.2979809486328283
877.0,0.29800673024110413
878.0,0.2980314571526506
879.0,0.29792773142301787
880.0,0.29792309038102843
881.0,0.29791719662772537
882.0,0.2979135436038305
883.0,0.29793616545685603
884.0,0.2979408156179264
885.0,0.2979667876312098
886.0,0.2980193974677399
887.0,0.2980716269342252
888.0,0.2980363457678074
889.0,0.2980371754221285
890.0,0.2980956990089052
891.0,0.2981434676253501
892.0,0.2980521241720299
893.0,0.2978936056799709
894.0,0.2976222477896614
895.0,0.2971387231290499
896.0,0.29685583108110214
897.0,0.29665969761152633
898.0,0.29648009859006075
899.0,0.2963679026626112
900.0,0.2963752038696531
901.0,0.29641882258839
902.0,0.29648653482390125
903.0,0.29664847851939846
904.0,0.2967054531825179
905.0,0.2967072969035724
906.0,0.296686924420011
907.0,0.2966044555033356
908.0,0.29641647496297446
909.0,0.2962220746450986
910.0,0.296134112802838
911.0,0.2962096510706836
912.0,0.29624623561782437
913.0,0.2962244930981908
914.0,0.29622304148794004
915.0,0.296397588002444
916.0,0.2963252838400553
917.0,0.2964577476925906
918.0,0.29690547049939436
919.0,0.29682906636817685
920.0,0.2969997046663949
921.0,0.2972404395163029
922.0,0.297299653065147
923.0,0.29724820050201034
924.0,0.2971015481449657
925.0,0.2969218423276512
926.0,0.29671785586881455
927.0,0.29635437539984016
928.0,0.2956322765581287
929.0,0.29452599862144496
930.0,0.2931175901553797
931.0,0.29162090958318315
932.0,0.2900168348102547
933.0,0.288180915473998
934.0,0.28648458603936744
935.0,0.28668415181524953
936.0,0.2870377852463068
937.0,0.28753245963770313
938.0,0.28842809081500426
939.0,0.28938833630421174
940.0,0.28994506315186147
941.0,0.2903675131244967
942.0,0.29068456574956186
943.0,0.2898924556917751
944.0,0.2896538819713427
945.0,0.2899727894119256
946.0,0.29029109918919027
947.0,0.2901412031174435
948.0,0.29048622936279095
949.0,0.2910658405475585
950.0,0.29144023012243025
951.0,0.2915070657722755
952.0,0.29187032936748697
953.0,0.2917632911216783
954.0,0.2913250213688563
955.0,0.29276904021735717
956.0,0.2925521291144997
957.0,0.2926498295647481
958.0,0.29400803769571227
959.0,0.294077035202829
960.0,0.2943885946831911
961.0,0.2949154489713963
962.0,0.29523951009331223
963.0,0.29497013495778923
964.0,0.29571307428648
965.0,0.2965975904006018
966.0,0.29714967588728924
967.0,0.2978244804336615
968.0,0.2983771852419586
969.0,0.29853933382418535
970.0,0.298511055557622
971.0,0.29884312005186564
972.0,0.29898983087654313
973.0,0.2989573581939455
974.0,0.29884936670084733
975.0,0.2988349522948131
976.0,0.299334461211525
977.0,0.299573730028124
978.0,0.29983814363744604
979.0,0.30083374213089425
980.0,0.3008384016002559
981.0,0.30077537855128206
982.0,0.30075338615129293
983.0,0.30062966062069396
984.0,0.3016517053806341
985.0,0.3023073669325708
986.0,0.30208703360572015
987.0,0.301387354635137
988.0,0.301641108054764
989.0,0.3020350811015718
990.0,0.3027190914053591
991.0,0.3035065207986489
992.0,0.30270204917155397
993.0,0.3025780009514831
994.0,0.3025851196312235
995.0,0.30220628264032645
996.0,0.30232181132116753
997.0,0.3017986663815116
998.0,0.30214238683871775
999.0,0.30319819689723276
1000.0,0.3024786157874403
1001.0,0.31189620173409877
1002.0,0.31200782853584647
1003.0,0.3121060784321199
1004.0,0.31215210835134305
1005.0,0.3123536661113337
1006.0,0.31261451793696327
1007.0,0.31278144659746837
1008.0,0.3129989356905564
1009.0,0.31329527605538415
1010.0,0.31323432662386913
1011.0,0.3131414589006968
1012.0,0.3133766172902842
1013.0,0.3135673295095173
1014.0,0.3136161262927449
1015.0,0.31383699651342783
1016.0,0.31400209276390495
1017.0,0.3140228961680823
1018.0,0.31412055233099817
1019.0,0.3143584184232731
1020.0,0.31446745244478874
1021.0,0.31449883553060104
1022.0,0.31446821626286603
1023.0,0.3146311607487195
1024.0,0.31472684427178177
1025.0,0.3148463830019439
1026.0,0.31508623564084676
1027.0,0.3152400249123556
1028.0,0.315734872258099
1029.0,0.31614664558414
1030.0,0.3162926358740883
1031.0,0.3162767369913015
1032.0,0.31582114236297654
1033.0,0.31565005784210043
1034.0,0.3153356110102707
1035.0,0.3153310518364482
1036.0,0.3155497327673808
1037.0,0.31595487201681366
1038.0,0.31621811812065914
1039.0,0.31639414377114544
1040.0,0.3164627523072849
1041.0,0.31658424278109715
1042.0,0.3166410698813115
1043.0,0.316885915889285
1044.0,0.31723143258452646
1045.0,0.3173746422063709
1046.0,0.3175194526236299
1047.0,0.3176302460918282
1048.0,0.31776083919708714
1049.0,0.31784269009122434
1050.0,0.3178980845090011
1051.0,0.31794357567324866
1052.0,0.31819181429539206
1053.0,0.318029936973455
1054.0,0.31794035355121986
1055.0,0.3180953355471253
1056.0,0.31803522362824105
1057.0,0.3180938383211729
1058.0,0.3184296132441689
1059.0,0.31886864404552284
1060.0,0.3190629672213647
1061.0,0.31918352879825274
1062.0,0.31947135800712884
1063.0,0.31958666680541603
1064.0,0.31941808861376364
1065.0,0.3194567442367726
1066.0,0.3198184176876985
1067.0,0.31980816159048214
1068.0,0.3197349029030283
1069.0,0.31978935397890296
1070.0,0.3197076037427753
1071.0,0.3196846032035482
1072.0,0.31969719543618935
1073.0,0.3198880534129492
1074.0,0.32016747516619726
1075.0,0.32024806907052256
1076.0,0.32046757714829016
1077.0,0.3207462924854895
1078.0,0.3209323612776658
1079.0,0.3209935024337267
1080.0,0.32115838944247727
1081.0,0.32146888810115765
1082.0,0.3216119591879483
1083.0,0.32156863770756244
1084.0,0.32170311432640564
1085.0,0.3218673786952603
1086.0,0.3219098025651893
1087.0,0.32219223982767475
1088.0,0.3226793699742634
1089.0,0.32293238015253595
1090.0,0.3231322942218556
1091.0,0.3233473782356157
1092.0,0.32348230969283587
1093.0,0.32356639431865136
1094.0,0.3236130823556506
1095.0,0.32365212624226614
1096.0,0.3237375229878061
1097.0,0.32371856410529404
1098.0,0.3238291394723159
1099.0,0.3242038553630309
1100.0,0.3243953101194181
1101.0,0.3243460751092924
1102.0,0.3242529975416577
1103.0,0.32415903223002646
1104.0,0.32425904123213256
1105.0,0.32448328962241024
1106.0,0.32469220321690606
1107.0,0.32481194260389745
1108.0,0.32486616885176656
1109.0,0.3249342916157337
1110.0,0.3249482330327441
1111.0,0.325005840380881
1112.0,0.32511557498968446
1113.0,0.3250304244475539
1114.0,0.3248436430723567
1115.0,0.3248027832932228
1116.0,0.3248694057012435
1117.0,0.3249077048188256
1118.0,0.3248816395902421
1119.0,0.32487640384955274
1120.0,0.324391600240248
1121.0,0.3235002996676975
1122.0,0.32296310865877376
1123.0,0.3226414870913777
1124.0,0.32229732803380584
1125.0,0.32243394033493394
1126.0,0.32244875584173943
1127.0,0.3224198889406159
1128.0,0.32237161966622696
