Wavelength (nm),Reflectance
350.0,0.12975703244638429
351.0,0.13028852629262277
352.0,0.13060860867529991
353.0,0.13170586689765157
354.0,0.13279811627394855
355.0,0.13359234333410006
356.0,0.13413050451364092
357.0,0.13472231289324643
358.0,0.1354410257350985
359.0,0.13631211639989135
360.0,0.13730003571986524
361.0,0.13832202977122113
362.0,0.13906017840778465
363.0,0.13981293554094304
364.0,0.14075140590663096
365.0,0.14134369104190522
366.0,0.14221329985574832
367.0,0.14320067487265267
368.0,0.1439561109453641
369.0,0.14463703095381536
370.0,0.14538136665444643
371.0,0.14631057605303685
372.0,0.14748892171143016
373.0,0.14878051292608052
374.0,0.149733135769186
375.0,0.15047648164822439
376.0,0.15178301039381206
377.0,0.1529693145743901
378.0,0.15398612961617864
379.0,0.1549616798868277
380.0,0.15609234197708702
381.0,0.15752820506433693
382.0,0.15883314371570378
383.0,0.15973382959980473
384.0,0.16124880136218933
385.0,0.16270699320015183
386.0,0.16397663867741352
387.0,0.1652346474097012
388.0,0.16660413920541386
389.0,0.16800855011828586
390.0,0.16928394603426186
391.0,0.17023939650671113
392.0,0.1714182467162728
393.0,0.17271929354685162
394.0,0.17400417690095465
395.0,0.17525488525564958
396.0,0.17647154952783417
397.0,0.17769975179685155
398.0,0.17893324688833107
399.0,0.18003525750689547
400.0,0.1809535684528484
401.0,0.18184114467218396
402.0,0.18286788151078426
403.0,0.1838222017026966
404.0,0.18478545869794763
405.0,0.185793935200767
406.0,0.18682595417079575
407.0,0.18782499737567235
408.0,0.18888711830205673
409.0,0.19000980067854964
410.0,0.1909898401138118
411.0,0.19191204339106396
412.0,0.19282649121135406
413.0,0.19377112601118177
414.0,0.19475351706114954
415.0,0.1958659720478792
416.0,0.19700250953594908
417.0,0.19798040094275363
418.0,0.19886179714167307
419.0,0.19984585257235837
420.0,0.20094127344511625
421.0,0.20195166338908166
422.0,0.20299607799743916
423.0,0.2041241920083746
424.0,0.20530507358683237
425.0,0.2063419260383617
426.0,0.20744664326325654
427.0,0.20856745430996365
428.0,0.20961067383249407
429.0,0.2107499511689562
430.0,0.211974823849138
431.0,0.21322162849143003
432.0,0.21441864557332596
433.0,0.21574959168617666
434.0,0.21702621707590183
435.0,0.21815929916996518
436.0,0.21926250909355538
437.0,0.22034582794707935
438.0,0.22145368829680384
439.0,0.22261148791503918
440.0,0.22379235435017306
441.0,0.22488863794582103
442.0,0.22593571445484417
443.0,0.227032402604328
444.0,0.2281250375434066
445.0,0.22919002864485197
446.0,0.23022418157479918
447.0,0.23124301576549833
448.0,0.23225512057433073
449.0,0.23327304702425866
450.0,0.23429059733668217
451.0,0.2352591568286322
452.0,0.23622680934960233
453.0,0.23716863618306344
454.0,0.2380432076006465
455.0,0.23889173550230608
456.0,0.2397578130024596
457.0,0.24061416616116887
458.0,0.24137652361521678
459.0,0.24215422111901805
460.0,0.24292597553087994
461.0,0.24365437223667552
462.0,0.24430957944856282
463.0,0.24497027420036602
464.0,0.24562350104326086
465.0,0.24623745478206124
466.0,0.24685209116243836
467.0,0.2474936149353835
468.0,0.24814907618811446
469.0,0.2487798712577727
470.0,0.24944310555134183
471.0,0.2500911317115776
472.0,0.25071758048189846
473.0,0.2514218431593029
474.0,0.25197351373642
475.0,0.25251231495025794
476.0,0.25321096253863745
477.0,0.25387890513109806
478.0,0.25459600949231725
479.0,0.2553415601616359
480.0,0.256032033272395
481.0,0.2567314670879049
482.0,0.2574341850852526
483.0,0.2581507159772137
484.0,0.2589242450138874
485.0,0.25970276228895434
486.0,0.2604884016123008
487.0,0.2613033235670558
488.0,0.26217983636655495
489.0,0.26307087444310534
490.0,0.26392195165398047
491.0,0.26469959291221695
492.0,0.2654803412894549
493.0,0.2663140618027476
494.0,0.26722132107004487
495.0,0.2681912275524517
496.0,0.2691093103019182
497.0,0.27000100111432196
498.0,0.2709137014665225
499.0,0.2717791636030359
500.0,0.27275825463600745
501.0,0.27381905500189985
502.0,0.2748138134748147
503.0,0.2758597980466478
504.0,0.2768425885688518
505.0,0.2777534895909089
506.0,0.278779969656596
507.0,0.27981802629234004
508.0,0.2808326460536999
509.0,0.2818297329782964
510.0,0.2828790453344659
511.0,0.28396458047724443
512.0,0.2850812404265632
513.0,0.28622713253128157
514.0,0.2873449206347201
515.0,0.28847790323251066
516.0,0.2896512342673281
517.0,0.290827727714928
518.0,0.292051806116249
519.0,0.29330624567846386
520.0,0.2945407359109983
521.0,0.295698525044413
522.0,0.2968638266756633
523.0,0.2980646363054359
524.0,0.29928342985788053
525.0,0.30054818744589035
526.0,0.3017980938248977
527.0,0.30302144157482275
528.0,0.30432241772812685
529.0,0.3056731842665206
530.0,0.3070266756109533
531.0,0.3083637291521228
532.0,0.30967886193361177
533.0,0.3110717634628595
534.0,0.31254072534804056
535.0,0.3140116840860864
536.0,0.31546680048099063
537.0,0.3169052369237082
538.0,0.3183591806792853
539.0,0.31986861712492665
540.0,0.3214065896696527
541.0,0.3229601425256877
542.0,0.3245310781145631
543.0,0.3261538683734373
544.0,0.3277075431360349
545.0,0.3292044043023742
546.0,0.3307582908300836
547.0,0.33233283927620083
548.0,0.33397457118082435
549.0,0.3356916455281588
550.0,0.3373832547902906
551.0,0.3391118941710372
552.0,0.34086987015090847
553.0,0.3426231893922739
554.0,0.34438330890260893
555.0,0.346181295521585
556.0,0.34799491994891946
557.0,0.3497447691447745
558.0,0.3514981688924577
559.0,0.35325778786766604
560.0,0.3550071648967386
561.0,0.3567450472552964
562.0,0.3585142185057372
563.0,0.360310055857327
564.0,0.3620974333608414
565.0,0.36381658905490244
566.0,0.3655113346771576
567.0,0.3672017593180437
568.0,0.3688677006837966
569.0,0.3705537206784718
570.0,0.3722611790580695
571.0,0.3739697605233601
572.0,0.37569893592876524
573.0,0.37735580211231273
574.0,0.37892224678752834
575.0,0.38044104381730415
576.0,0.3820439104753306
577.0,0.3835786586778044
578.0,0.38502228267244487
579.0,0.38661194345910066
580.0,0.3881942965819506
581.0,0.38973045262630784
582.0,0.39121815855972236
583.0,0.39264019740983575
584.0,0.3940730980999543
585.0,0.3955133474093471
586.0,0.39688706965368703
587.0,0.39815508956375956
588.0,0.3992442958616358
589.0,0.4002098474906938
590.0,0.4013203220063396
591.0,0.4024382026283784
592.0,0.4035275930901821
593.0,0.40460903117803104
594.0,0.4056209526628963
595.0,0.4066298678102328
596.0,0.40764828592759655
597.0,0.4086493305107607
598.0,0.40964612854541876
599.0,0.41057865428681994
600.0,0.41142281992928476
601.0,0.4122633492949844
602.0,0.4131022199453238
603.0,0.41389937353850903
604.0,0.4146194549075436
605.0,0.41535571966923734
606.0,0.41603736168355215
607.0,0.4166728149287389
608.0,0.4173564264482599
609.0,0.4179375314465083
610.0,0.4184661494495466
611.0,0.41901964266928765
612.0,0.41964922554170314
613.0,0.42019213890051726
614.0,0.42068416174214895
615.0,0.42122816382642436
616.0,0.4216435776405376
617.0,0.42214228283658595
618.0,0.42274765641716633
619.0,0.4232294960444452
620.0,0.42365485438449174
621.0,0.4240559815118775
622.0,0.42445893555542147
623.0,0.42488918691151756
624.0,0.42531408621594
625.0,0.4257296172235986
626.0,0.4261394476193869
627.0,0.42645418121985157
628.0,0.4267495080076106
629.0,0.4271085862295612
630.0,0.4275943823034639
631.0,0.42808844079987785
632.0,0.42859360647534706
633.0,0.4291208489133764
634.0,0.4295834981930552
635.0,0.4300281273818383
636.0,0.4304909225471945
637.0,0.43098569996639163
638.0,0.43141411306359667
639.0,0.43182166390870713
640.0,0.4322525435362745
641.0,0.4327010635650629
642.0,0.43317202488655177
643.0,0.4336126551933895
644.0,0.4339814434465263
645.0,0.43433343704996513
646.0,0.43468407981002466
647.0,0.4350297384600051
648.0,0.4353635286292447
649.0,0.4358402583448032
650.0,0.4364115531828
651.0,0.436958243596908
652.0,0.4372999068909731
653.0,0.4378145732116178
654.0,0.43834182188125365
655.0,0.4386393501074686
656.0,0.4390168188582292
657.0,0.43962785796298365
658.0,0.44032464416543693
659.0,0.4408390632356395
660.0,0.441223789472568
661.0,0.44167941758284124
662.0,0.44224923147786177
663.0,0.44260098244020046
664.0,0.44299121191489704
665.0,0.44348598166710657
666.0,0.44405639274351055
667.0,0.4445590604900064
668.0,0.4450544529796031
669.0,0.44557093378994955
670.0,0.44609790010020534
671.0,0.44658357095696255
672.0,0.4470907969055769
673.0,0.44764864246089464
674.0,0.44816630721812095
675.0,0.4486837861935466
676.0,0.44924382772896765
677.0,0.44985855646762946
678.0,0.4503620613593923
679.0,0.45091530773046706
680.0,0.45153453397878013
681.0,0.45207300174768744
682.0,0.4527141368400503
683.0,0.4533958170010951
684.0,0.4540017096918198
685.0,0.4544621088919953
686.0,0.45431497044293045
687.0,0.45392134376427207
688.0,0.45418249515010567
689.0,0.455200566909167
690.0,0.45634330871378465
691.0,0.45735820598884214
692.0,0.4582934580544792
693.0,0.45891779279011
694.0,0.45952546288014773
695.0,0.4603353478697978
696.0,0.46121841040615524
697.0,0.46201186397113725
698.0,0.46266884915875667
699.0,0.4632113119019249
700.0,0.4637523553656956
701.0,0.4643697579496027
702.0,0.46506667515512407
703.0,0.4657692202786076
704.0,0.466489095064168
705.0,0.4671715500666085
706.0,0.46781367638467714
707.0,0.46854457961135537
708.0,0.46917549782708295
709.0,0.46978707773301376
710.0,0.4705137910582469
711.0,0.4711968665790535
712.0,0.4718257691698047
713.0,0.4723989264463321
714.0,0.4729106634595993
715.0,0.47328266147702475
716.0,0.4733518480328058
717.0,0.47310896606540026
718.0,0.472936671870479
719.0,0.4732730980733988
720.0,0.4742821876243759
721.0,0.4756811719420111
722.0,0.47684911291894827
723.0,0.47722295566370215
724.0,0.4771126268216241
725.0,0.47752000119811067
726.0,0.4781831390622453
727.0,0.4788694164357871
728.0,0.4794821684543604
729.0,0.48012290448450784
730.0,0.48073614740953097
731.0,0.48144687445994827
732.0,0.48233479137208785
733.0,0.4831760126354041
734.0,0.48393605299967585
735.0,0.48458473372836636
736.0,0.48508449841427675
737.0,0.48558368049278205
738.0,0.4861079502827524
739.0,0.48666833477735266
740.0,0.4872596398312753
741.0,0.48778015990764806
742.0,0.4882278234422977
743.0,0.48863578094643056
744.0,0.4890587859295127
745.0,0.48954867835008853
746.0,0.4900545591032887
747.0,0.4904921823698355
748.0,0.49097098440206566
749.0,0.49139870546189524
750.0,0.4917723329814941
751.0,0.49220172393665923
752.0,0.4926086685702402
753.0,0.49300825274173987
754.0,0.4934139964915592
755.0,0.49379670069017384
756.0,0.49415482589067417
757.0,0.4944714574735386
758.0,0.4945482468553763
759.0,0.4928272309507108
760.0,0.4887159816263598
761.0,0.4831859514705297
762.0,0.4850415083306115
763.0,0.4861796976972888
764.0,0.48799588254222304
765.0,0.4908988375282947
766.0,0.49374346978371275
767.0,0.4954350336837634
768.0,0.4963203755054872
769.0,0.496779304607633
770.0,0.49712823216205443
771.0,0.497406926816463
772.0,0.49765676696818356
773.0,0.49788946281255997
774.0,0.4979449722443572
775.0,0.4979937963660674
776.0,0.49812326222561637
777.0,0.498301275059417
778.0,0.4984133172098387
779.0,0.49844808641608523
780.0,0.49844626179273926
781.0,0.49850628383902823
782.0,0.49853353274499246
783.0,0.4984775777958397
784.0,0.4983642434528976
785.0,0.4984473508321081
786.0,0.4984772107398709
787.0,0.49843308150131305
788.0,0.4984126714891578
789.0,0.49824738912057454
790.0,0.4981252530218078
791.0,0.4980834244897991
792.0,0.49795979114341793
793.0,0.4979442330384477
794.0,0.4979774525667567
795.0,0.4979536925076561
796.0,0.49777189458975446
797.0,0.4976393735992804
798.0,0.4975625747650494
799.0,0.4974808410629553
800.0,0.49735933977616875
801.0,0.4972512521778482
802.0,0.49713460119616926
803.0,0.4969677910412653
804.0,0.4969005640537351
805.0,0.4969388788293298
806.0,0.49696295789689765
807.0,0.49676912877370194
808.0,0.49658567579792673
809.0,0.49645761736994204
810.0,0.49632162005741226
811.0,0.4959773653215156
812.0,0.4955538867504826
813.0,0.49497976057849474
814.0,0.49426110338380336
815.0,0.4938943983221794
816.0,0.4935748104594032
817.0,0.4933477118769336
818.0,0.4933823120628802
819.0,0.49352838932226273
820.0,0.4937786664298017
821.0,0.49379152561800377
822.0,0.49310219127111393
823.0,0.4928003401298052
824.0,0.49302757732697305
825.0,0.49338765776886806
826.0,0.493187748655746
827.0,0.49301186496825206
828.0,0.4927925420745409
829.0,0.4924910816329693
830.0,0.49240131145153404
831.0,0.49230655816540875
832.0,0.49224990268846835
833.0,0.4922812877293807
834.0,0.4921793767005847
835.0,0.4921501002310531
836.0,0.49218334052509644
837.0,0.4921717558291361
838.0,0.4921093273928675
839.0,0.4919998748939391
840.0,0.49192894602526294
841.0,0.49199727203150145
842.0,0.49188430636895586
843.0,0.49167075265891236
844.0,0.49145113976771765
845.0,0.49126825048676104
846.0,0.4911975188318926
847.0,0.4911430418677338
848.0,0.4910155721521411
849.0,0.49080424501581355
850.0,0.49071483708373254
851.0,0.4907467227457855
852.0,0.49078464217686646
853.0,0.49058634843715165
854.0,0.4904194925868737
855.0,0.490353261213963
856.0,0.49034562997627484
857.0,0.4903166877165972
858.0,0.49026162999578676
859.0,0.4902181493748736
860.0,0.4902099029729438
861.0,0.4900017736365477
862.0,0.48996415095290863
863.0,0.49008753899108076
864.0,0.49003940583657574
865.0,0.4899154932184958
866.0,0.48970896015189536
867.0,0.4895667462509304
868.0,0.489758796857607
869.0,0.4898588213349722
870.0,0.48976318899460686
871.0,0.48956621248515025
872.0,0.48955686196993015
873.0,0.48974282761540827
874.0,0.48986102425410577
875.0,0.4898041884096013
876.0,0.489955695875349
877.0,0.48998864460604313
878.0,0.48990126516854937
879.0,0.4897906339147526
880.0,0.4897339271906887
881.0,0.4897203199152776
882.0,0.4899259723900067
883.0,0.490383153239493
884.0,0.49035259935230086
885.0,0.49040360563858315
886.0,0.49052261134356
887.0,0.49048444514501716
888.0,0.49060272940349575
889.0,0.4908023624202855
890.0,0.49096610417654674
891.0,0.4909961384172951
892.0,0.4910453144764785
893.0,0.4907927369942364
894.0,0.4903019431096412
895.0,0.48996528617609303
896.0,0.48970233738422264
897.0,0.48935985968821016
898.0,0.48901860196200425
899.0,0.48899537313658054
900.0,0.489121703185064
901.0,0.4895719686994953
902.0,0.49029878542405575
903.0,0.4909920432134266
904.0,0.49137036165016545
905.0,0.4913537197848559
906.0,0.4910373771844881
907.0,0.49070479718927423
908.0,0.49061568913431036
909.0,0.49064948754333215
910.0,0.49070852963476264
911.0,0.4908836286065436
912.0,0.49084978972379445
913.0,0.4907093906098033
914.0,0.4907230816106169
915.0,0.4912132575585991
916.0,0.4917283340318247
917.0,0.4923069499311681
918.0,0.4931307061097717
919.0,0.4944045904394557
920.0,0.49511996685306087
921.0,0.49518471595888697
922.0,0.4949921256116342
923.0,0.4953622195515189
924.0,0.49557182069344
925.0,0.4954781259379323
926.0,0.4951637963150393
927.0,0.49487399382451974
928.0,0.49392595660244715
929.0,0.4922427429203013
930.0,0.48995957058366646
931.0,0.487235001915972
932.0,0.484042040033644
933.0,0.4809141654834994
934.0,0.4785566804844819
935.0,0.4769751083180341
936.0,0.4780331943922868
937.0,0.48099870951185997
938.0,0.4842403213252029
939.0,0.48631807373224173
940.0,0.48725717057084506
941.0,0.4874470813593372
942.0,0.4873684249578903
943.0,0.4874903459696479
944.0,0.4863647021656202
945.0,0.4854305518267115
946.0,0.4859562507785615
947.0,0.4865839697754916
948.0,0.4878248462108827
949.0,0.4884729156186476
950.0,0.48799136578377594
951.0,0.48788175540659645
952.0,0.48853389704028904
953.0,0.48940253976040604
954.0,0.4899878103945329
955.0,0.4904264246303655
956.0,0.49106445770899027
957.0,0.49196124078537673
958.0,0.49289379207230793
959.0,0.493383401280568
960.0,0.49459931519415173
961.0,0.49514625772094456
962.0,0.4949837307909839
963.0,0.4963899634500642
964.0,0.498562258722984
965.0,0.5004764124308082
966.0,0.5019069231937879
967.0,0.5034938525020212
968.0,0.5043956120723395
969.0,0.5051788033279883
970.0,0.5063328086078989
971.0,0.5079056701596829
972.0,0.5088553482043033
973.0,0.5091352400564898
974.0,0.5091667285167115
975.0,0.5095812952948021
976.0,0.5101857188209702
977.0,0.5112742767796229
978.0,0.5125016770591093
979.0,0.5132754910867723
980.0,0.5143317041799847
981.0,0.5147604713334011
982.0,0.5150574414654319
983.0,0.5161326667742898
984.0,0.5170191748087413
985.0,0.5180180582961278
986.0,0.5186468207124799
987.0,0.5185518320820305
988.0,0.5188438935741075
989.0,0.519925760984826
990.0,0.5204390103217985
991.0,0.5195802802613266
992.0,0.5193933411736938
993.0,0.5199999892857877
994.0,0.5211928797246296
995.0,0.5222791576405978
996.0,0.5221850493346133
997.0,0.5225647842333572
998.0,0.5228734384254317
999.0,0.5226984733738893
1000.0,0.5224102137303271
1001.0,0.5368185641044765
1002.0,0.5365605613429206
1003.0,0.5370449677350426
1004.0,0.5377791917532674
1005.0,0.5382434960914606
1006.0,0.5390455321280921
1007.0,0.5397062375387387
1008.0,0.5399299662130447
1009.0,0.5406445763842284
1010.0,0.5417340410604664
1011.0,0.5420387091632362
1012.0,0.5416746902320347
1013.0,0.5413106598324724
1014.0,0.5412134077623589
1015.0,0.5416589536921231
1016.0,0.5420218204996551
1017.0,0.543045889188486
1018.0,0.5435647899482673
1019.0,0.5436287329286726
1020.0,0.5438153249436287
1021.0,0.5440696864435228
1022.0,0.5443948066944706
1023.0,0.5442658180708958
1024.0,0.5444841070693293
1025.0,0.5445411660079279
1026.0,0.5440962670885362
1027.0,0.5440560841905857
1028.0,0.544382625616584
1029.0,0.5447186901806618
1030.0,0.5455380800999038
1031.0,0.5461053101835365
1032.0,0.5465962563862568
1033.0,0.5470914057883864
1034.0,0.5475934615171577
1035.0,0.5478826795082081
1036.0,0.5482032429781752
1037.0,0.548452468149429
1038.0,0.5478897621282792
1039.0,0.5475895252592201
1040.0,0.5473556114727426
1041.0,0.5473119034415446
1042.0,0.5478867973487445
1043.0,0.5482682139460988
1044.0,0.5487599863660358
1045.0,0.5492377069598745
1046.0,0.5495430637580655
1047.0,0.5497751000128022
1048.0,0.5500125722086543
1049.0,0.5500315460456193
1050.0,0.5501432681216408
1051.0,0.5501590092066443
1052.0,0.5505354196735447
1053.0,0.5509382549843818
1054.0,0.5511620681193983
1055.0,0.5514732190306479
1056.0,0.5516729494917947
1057.0,0.5519051463796835
1058.0,0.552334902066457
1059.0,0.552667750585572
1060.0,0.5527634988678427
1061.0,0.5525487759601798
1062.0,0.5527967272751837
1063.0,0.552993418159005
1064.0,0.5532347184970301
1065.0,0.5534328711848191
1066.0,0.5540350885018257
1067.0,0.5540126152112546
1068.0,0.5538603878162895
1069.0,0.5537715664129736
1070.0,0.5532672633759752
1071.0,0.5532101888747473
1072.0,0.5536850199387494
1073.0,0.5539958595658685
1074.0,0.5544453304584528
1075.0,0.5549217294679734
1076.0,0.5547591113902616
1077.0,0.554581382421582
1078.0,0.5546869249620494
1079.0,0.5549497562286031
1080.0,0.5551471727985146
1081.0,0.5554831721506227
1082.0,0.5560041381799808
1083.0,0.5565211481212371
1084.0,0.5564568387933514
1085.0,0.5562300083175666
1086.0,0.5564289838902139
1087.0,0.5563779101128785
1088.0,0.5565082771821567
1089.0,0.5569204835463241
1090.0,0.5569337968180205
1091.0,0.5569474049607529
1092.0,0.5569851559028305
1093.0,0.5570760312306909
1094.0,0.5572799656796096
1095.0,0.5576359528801863
1096.0,0.557867189882712
1097.0,0.558058009592128
1098.0,0.5583424831732867
1099.0,0.5582480922299579
1100.0,0.5582764101598562
1101.0,0.5584361382489722
1102.0,0.5580852783595217
1103.0,0.558004584395927
1104.0,0.5577830754046241
1105.0,0.5574898036230668
1106.0,0.5576643991110576
1107.0,0.5577923496843544
1108.0,0.5579309976836049
1109.0,0.5579469222163134
1110.0,0.5578182405390564
1111.0,0.557531345308491
1112.0,0.5569628695322879
1113.0,0.5563538443047684
1114.0,0.5556516537376635
1115.0,0.554586773546086
1116.0,0.553676671125745
1117.0,0.552751537039512
1118.0,0.5517764108331843
1119.0,0.5509031081584418
1120.0,0.5496507895130637
1121.0,0.5487957312321914
1122.0,0.5486272884377992
1123.0,0.5480781822990507
1124.0,0.5477502044124594
1125.0,0.5468474560169702
1126.0,0.546482414874642
1127.0,0.5460638616779395
1128.0,0.5462343271918729
1129.0,0.5467722328332212
1130.0,0.5479201994185035
1131.0,0.5489644016705333
1132.0,0.5501931588930686
