Wavelength (nm),Reflectance
350.0,0.13701455739086932
351.0,0.13734652250348794
352.0,0.13802693624148024
353.0,0.13888725008895184
354.0,0.1397278562727159
355.0,0.14066259700887293
356.0,0.14166804623495907
357.0,0.1425856052401288
358.0,0.14352093147505257
359.0,0.14450238682063152
360.0,0.1454979019712917
361.0,0.14641941135218997
362.0,0.1470484656316131
363.0,0.14776727335410875
364.0,0.1488241023480078
365.0,0.14985672428121646
366.0,0.1505804661516662
367.0,0.15133581767493798
368.0,0.15248171245636605
369.0,0.15333359452642797
370.0,0.15425022635389227
371.0,0.15535388440407003
372.0,0.15657590526760945
373.0,0.15799841643004162
374.0,0.15906420243198416
375.0,0.15979468291916343
376.0,0.16092293196257812
377.0,0.1623439045856577
378.0,0.16373830772597942
379.0,0.1649658169951448
380.0,0.16631029727303215
381.0,0.16777659037658807
382.0,0.16910659363225947
383.0,0.17017844984173605
384.0,0.17164993041755805
385.0,0.173285003846339
386.0,0.17496810368383253
387.0,0.17660012841672146
388.0,0.1777524096250753
389.0,0.17904455805995909
390.0,0.18050533250126755
391.0,0.1816057553745678
392.0,0.18287168451984584
393.0,0.18432442840734492
394.0,0.18589198237793664
395.0,0.18750700395778142
396.0,0.18877787028639595
397.0,0.18986353787785223
398.0,0.19100496780743886
399.0,0.19230594287949207
400.0,0.19349180984456105
401.0,0.1945535280290231
402.0,0.19558958940233961
403.0,0.1965952937964092
404.0,0.19760730270407678
405.0,0.19866297131627983
406.0,0.19979267741838935
407.0,0.20096167481941146
408.0,0.20218567248462577
409.0,0.20338316819657737
410.0,0.2042854450993577
411.0,0.20534938194224944
412.0,0.2065176144340627
413.0,0.20763257614396996
414.0,0.20869816933028476
415.0,0.20979301049607896
416.0,0.2109341048775081
417.0,0.2120867522106492
418.0,0.21314580703678254
419.0,0.21419844851090436
420.0,0.215292904913361
421.0,0.21641635154680203
422.0,0.2175829730540008
423.0,0.21876846665304553
424.0,0.21995329171706487
425.0,0.22113957779234342
426.0,0.22230902968983948
427.0,0.22347901228064793
428.0,0.22469504181849495
429.0,0.22606407996046343
430.0,0.22743938322465915
431.0,0.2287392439426109
432.0,0.22997315159427814
433.0,0.23139147670537175
434.0,0.23276283300282927
435.0,0.23398435417598087
436.0,0.23522181078194357
437.0,0.23641758092843668
438.0,0.23757672081995687
439.0,0.23873960378217357
440.0,0.24002687564571928
441.0,0.24127799002188927
442.0,0.24248066721341235
443.0,0.24369422310471966
444.0,0.24486037950049522
445.0,0.2459866618299225
446.0,0.2471157585578769
447.0,0.24831480544411527
448.0,0.24945608991211154
449.0,0.25052575461779386
450.0,0.2515547409886743
451.0,0.25262444001523826
452.0,0.25367940169194947
453.0,0.25471191628353906
454.0,0.25572492586673945
455.0,0.2566609070915188
456.0,0.2576361719926686
457.0,0.25863660677278927
458.0,0.25952362582164606
459.0,0.26038396829945265
460.0,0.2612163610492944
461.0,0.2620021642328496
462.0,0.2627067522618992
463.0,0.2634230056553167
464.0,0.26416265517966436
465.0,0.26490277189611944
466.0,0.26561078126089727
467.0,0.2663301323579707
468.0,0.2670588555854198
469.0,0.2677599005291017
470.0,0.2684688853905753
471.0,0.26919071397709343
472.0,0.2699190387563342
473.0,0.27064141613016723
474.0,0.27123785061461125
475.0,0.27185258149825914
476.0,0.27262540615571634
477.0,0.27332358136814855
478.0,0.27405884106026224
479.0,0.27485420832519936
480.0,0.27565978783708583
481.0,0.27640944184961924
482.0,0.2771814420649016
483.0,0.27801180979596346
484.0,0.27882436823851303
485.0,0.2796680872524609
486.0,0.28055602599442114
487.0,0.28148448234432105
488.0,0.28243526226515664
489.0,0.2834059418454976
490.0,0.2843354467744696
491.0,0.28516352719807214
492.0,0.2860793496696058
493.0,0.28702679810307086
494.0,0.2879824766212718
495.0,0.289022031982877
496.0,0.29000179662738834
497.0,0.29096269899539823
498.0,0.2919679176995015
499.0,0.29292980351971437
500.0,0.29398748340749686
501.0,0.29511197697029823
502.0,0.2961764625580647
503.0,0.2973133404870705
504.0,0.29839249283187014
505.0,0.29940552095251954
506.0,0.30057162035227153
507.0,0.30172702893648395
508.0,0.30284552210988785
509.0,0.30395155721400846
510.0,0.30509526442666335
511.0,0.3062552994766061
512.0,0.3074380506919401
513.0,0.3086616344873324
514.0,0.3098531878846852
515.0,0.31107382895370983
516.0,0.31235129491412555
517.0,0.3136164737361415
518.0,0.3149825461374915
519.0,0.3163822579758009
520.0,0.31770937307011254
521.0,0.31896913917191244
522.0,0.3202217249968081
523.0,0.32150218653111495
524.0,0.3228177136990302
525.0,0.3241825186531259
526.0,0.3255314449797883
527.0,0.32685817613019585
528.0,0.3282885275869326
529.0,0.329774855957503
530.0,0.3312330671828021
531.0,0.3326268920711597
532.0,0.3340148450079209
533.0,0.3354852395223385
534.0,0.33705286158627334
535.0,0.3386744906181135
536.0,0.3402506308973405
537.0,0.3417784357403323
538.0,0.343309985454177
539.0,0.3449159379016444
540.0,0.3465784887087902
541.0,0.34828438553166924
542.0,0.3500183773261969
543.0,0.3517444387097856
544.0,0.35342917498937737
545.0,0.3550990172028473
546.0,0.35681168876218566
547.0,0.3585311417382632
548.0,0.36033209984100856
549.0,0.3622276102943563
550.0,0.364057223989183
551.0,0.36589653836228886
552.0,0.36775770931854584
553.0,0.3696292980136822
554.0,0.37153531325677386
555.0,0.3734501340201733
556.0,0.37532865662497805
557.0,0.37711244879429295
558.0,0.37895574040892527
559.0,0.3808384236511595
560.0,0.38270705144785233
561.0,0.384563247621551
562.0,0.38646265813202346
563.0,0.3883850350386556
564.0,0.3902806076239883
565.0,0.3921788205631595
566.0,0.39408953812550573
567.0,0.3959875637237623
568.0,0.39781038774779337
569.0,0.399630071747616
570.0,0.40137115160699516
571.0,0.4029774301084516
572.0,0.4046281918897541
573.0,0.40627142391884474
574.0,0.40787303449829354
575.0,0.4094330446428984
576.0,0.41114765018616495
577.0,0.41285586607973607
578.0,0.41451186772502474
579.0,0.41632581581206873
580.0,0.418106724907955
581.0,0.4197939935490149
582.0,0.4213793331803775
583.0,0.42285856329953325
584.0,0.42432576538333766
585.0,0.42577951686935955
586.0,0.4271390602881635
587.0,0.42839206974796074
588.0,0.42946036669653587
589.0,0.43041510249002196
590.0,0.43158832418266235
591.0,0.4328335113387922
592.0,0.43406168575320775
593.0,0.43524384055996085
594.0,0.43633144078605934
595.0,0.43740271256747765
596.0,0.43850524850798117
597.0,0.43965516515489733
598.0,0.44071199955715223
599.0,0.4416582206481603
600.0,0.44252140954337205
601.0,0.443374292971947
602.0,0.44424218604428306
603.0,0.44510847681062987
604.0,0.4459381984877079
605.0,0.44672413674652606
606.0,0.447396994715328
607.0,0.4480144643881234
608.0,0.44875758151817957
609.0,0.44939087852000664
610.0,0.44996644891210424
611.0,0.4505641662296158
612.0,0.4511875911418257
613.0,0.4517250199091997
614.0,0.45223195489697837
615.0,0.4528162925722506
616.0,0.4533201610080964
617.0,0.453871756515241
618.0,0.45447590094651374
619.0,0.45497517882852373
620.0,0.4554091963823999
621.0,0.4558288434315577
622.0,0.4562647514810755
623.0,0.4566674386607656
624.0,0.4570916492101514
625.0,0.45755564008787325
626.0,0.45803319253093616
627.0,0.45834089400353833
628.0,0.4586263043775505
629.0,0.4590189577172851
630.0,0.4595582741146077
631.0,0.46009581104310565
632.0,0.4606359218445591
633.0,0.46120499069034254
634.0,0.46175077800172176
635.0,0.462213336418038
636.0,0.46264517435169034
637.0,0.46315910865991977
638.0,0.46365475925614336
639.0,0.46411695487120774
640.0,0.4645612650601257
641.0,0.4650220510017397
642.0,0.4655076771277542
643.0,0.46596556571840947
644.0,0.46634882447863024
645.0,0.4666926195974743
646.0,0.46705185297473667
647.0,0.4674108036637004
648.0,0.4677186989269717
649.0,0.46828108264877955
650.0,0.46893853949900677
651.0,0.46948946944372877
652.0,0.4698124822944107
653.0,0.4702963051336658
654.0,0.4708093205900281
655.0,0.4711231196712716
656.0,0.47145194669651014
657.0,0.47208035135517135
658.0,0.47284717070260135
659.0,0.47334923308136645
660.0,0.4737587424508332
661.0,0.47424049172927557
662.0,0.47480253654087234
663.0,0.4751261450832734
664.0,0.47552163772570794
665.0,0.4760073068774146
666.0,0.47650020761627115
667.0,0.4769967438713019
668.0,0.47751496379704556
669.0,0.47804081750241995
670.0,0.47853447049814524
671.0,0.4789431054897076
672.0,0.4794229220545068
673.0,0.4800414270708127
674.0,0.48058031878378454
675.0,0.4810829937193113
676.0,0.48162317156937906
677.0,0.4822535368490597
678.0,0.48280306155283825
679.0,0.4833882923214109
680.0,0.4840355181617976
681.0,0.4846607643614775
682.0,0.4853394542278403
683.0,0.48604299368760123
684.0,0.4867107655296071
685.0,0.487339535292334
686.0,0.4871846206369395
687.0,0.4866682799114257
688.0,0.48696027592698193
689.0,0.4882222391792161
690.0,0.48953213281097147
691.0,0.49061115131815386
692.0,0.4917045854629226
693.0,0.4924500376110113
694.0,0.4931075756161403
695.0,0.49394830230246456
696.0,0.49509039372469776
697.0,0.4960169165529806
698.0,0.4966824365152531
699.0,0.49724143789764363
700.0,0.4978130219948518
701.0,0.4984741711210193
702.0,0.4992266618538833
703.0,0.49999455603691895
704.0,0.5007519756264811
705.0,0.5014864609836296
706.0,0.502206295665572
707.0,0.5029423342672552
708.0,0.5035677966904245
709.0,0.5041946736408812
710.0,0.5049709227973717
711.0,0.5057239381591674
712.0,0.5063813805688837
713.0,0.5069441724737582
714.0,0.5074695352455848
715.0,0.5078673562897652
716.0,0.5078922783405527
717.0,0.5074866306435949
718.0,0.5070993754277686
719.0,0.5073575399997879
720.0,0.5084978644403051
721.0,0.5101467504494734
722.0,0.511429050855057
723.0,0.51175015586599
724.0,0.5115293518366913
725.0,0.5119938023103516
726.0,0.5126981226847508
727.0,0.5133970880183525
728.0,0.5140239545615227
729.0,0.5147375755664071
730.0,0.5154005873441856
731.0,0.5161403789649845
732.0,0.5170704948229915
733.0,0.5180194470845818
734.0,0.5188215987824302
735.0,0.5194619628625878
736.0,0.5199998509326977
737.0,0.5205140380971824
738.0,0.5210648093350463
739.0,0.5216721464280141
740.0,0.5222854738618264
741.0,0.5228310587528102
742.0,0.5232709217893241
743.0,0.5236317385371381
744.0,0.5240904530504674
745.0,0.524675775741863
746.0,0.5252472127907589
747.0,0.525639256356308
748.0,0.5261918206825849
749.0,0.5266469862396753
750.0,0.5269700195600417
751.0,0.5274219029771845
752.0,0.527838493465155
753.0,0.5282520887290192
754.0,0.5286961067299982
755.0,0.5291258109858604
756.0,0.5295156488014106
757.0,0.5298669045594754
758.0,0.5299748991937958
759.0,0.527993212772756
760.0,0.5231844356838705
761.0,0.516691671377645
762.0,0.5189709557876708
763.0,0.5200725238677412
764.0,0.5220912798181812
765.0,0.5255520660671622
766.0,0.5287134742488726
767.0,0.5306276743236343
768.0,0.5316906591078258
769.0,0.5322833460614779
770.0,0.5326481830347014
771.0,0.5329139088963792
772.0,0.5331679528638205
773.0,0.5334360215774975
774.0,0.5335021963203131
775.0,0.5335541496075199
776.0,0.533671031582167
777.0,0.5337900179105323
778.0,0.5339146059083857
779.0,0.5339955864551087
780.0,0.5340235609765887
781.0,0.534082584801641
782.0,0.5341217846610621
783.0,0.5340645085512299
784.0,0.5339196249124055
785.0,0.5340511668822585
786.0,0.5340845659239837
787.0,0.5339981353802224
788.0,0.5339581401536109
789.0,0.5337599429629376
790.0,0.5336169646368853
791.0,0.5335852609685344
792.0,0.5335040362857781
793.0,0.5335034412423685
794.0,0.5335080898152378
795.0,0.5334469108966644
796.0,0.5333388971337986
797.0,0.5331904344703905
798.0,0.5330524508074006
799.0,0.5329560393028476
800.0,0.5328205118803604
801.0,0.5326833808287622
802.0,0.5325400848849748
803.0,0.5323822692542398
804.0,0.5323645166615905
805.0,0.5324000069453144
806.0,0.532372723700799
807.0,0.532182060407089
808.0,0.5319953669634483
809.0,0.5318509936992367
810.0,0.5316953385721632
811.0,0.5313523912218114
812.0,0.5308987711261597
813.0,0.5302670258033473
814.0,0.5294758831202635
815.0,0.5289961136264191
816.0,0.5285736810047568
817.0,0.5283349353489073
818.0,0.5284873043291943
819.0,0.5286824099168036
820.0,0.5289542521965303
821.0,0.5289619107333516
822.0,0.5282017259150733
823.0,0.527760783999194
824.0,0.5280140172754129
825.0,0.528548437740336
826.0,0.528356581599569
827.0,0.5281599164370779
828.0,0.5279150110956558
829.0,0.5275997353856673
830.0,0.5275473242389356
831.0,0.5274546889387145
832.0,0.5273541108609335
833.0,0.5273343229499147
834.0,0.5272833153141323
835.0,0.5273268725552552
836.0,0.5273991539972143
837.0,0.5273655455568427
838.0,0.527243043648082
839.0,0.5271928381012185
840.0,0.5271913262243857
841.0,0.5270782949921253
842.0,0.5269402455043039
843.0,0.5267737849994503
844.0,0.5265831220680378
845.0,0.5263969104271823
846.0,0.526367305518554
847.0,0.5263779002489062
848.0,0.5262764120637411
849.0,0.5259441841404076
850.0,0.5258061572076209
851.0,0.5258961491502775
852.0,0.526025549149858
853.0,0.5257501025735983
854.0,0.5254860130335205
855.0,0.5253997230161688
856.0,0.5254710563118111
857.0,0.5254796993586291
858.0,0.5253724249487861
859.0,0.525263591097785
860.0,0.5252982408829323
861.0,0.5251850576421939
862.0,0.5251714594542823
863.0,0.5252177162463882
864.0,0.5250554898781357
865.0,0.5249115808384408
866.0,0.5246626381127766
867.0,0.5244574961354345
868.0,0.5247242611635595
869.0,0.5247555961329107
870.0,0.5246381310689986
871.0,0.5245462030397088
872.0,0.5245692176867542
873.0,0.5247589117247825
874.0,0.5249099604897979
875.0,0.5249078803684061
876.0,0.5249762045349989
877.0,0.524932191712609
878.0,0.5249265177316556
879.0,0.5250372052254947
880.0,0.5248077700201947
881.0,0.5248348350606297
882.0,0.525083586802919
883.0,0.5252792772155404
884.0,0.5252546820213531
885.0,0.5253981755730774
886.0,0.5255431083381655
887.0,0.5254083421673932
888.0,0.5256146769098631
889.0,0.5259778079136255
890.0,0.5261900115623328
891.0,0.5260186038797511
892.0,0.5260426740121074
893.0,0.52572085639365
894.0,0.5251420665869687
895.0,0.5249186904120315
896.0,0.5246160870479439
897.0,0.5242613874516211
898.0,0.5238886244522767
899.0,0.5235348009641664
900.0,0.5236512909177018
901.0,0.5242300626959386
902.0,0.5250687581170568
903.0,0.5258846540314698
904.0,0.5263896807921353
905.0,0.5264767686156286
906.0,0.5261278744307673
907.0,0.5254362251331528
908.0,0.5252964049300873
909.0,0.5254723313487631
910.0,0.5256558980081292
911.0,0.5258789192276495
912.0,0.5259778779041415
913.0,0.5259093898630692
914.0,0.5258521989749605
915.0,0.5262733717950707
916.0,0.5267412640702582
917.0,0.5272909977336226
918.0,0.5281251829219867
919.0,0.5295290569551423
920.0,0.5303793446319308
921.0,0.5305469208006718
922.0,0.5303478539953062
923.0,0.5303917968894368
924.0,0.5307256476732867
925.0,0.5310381279131786
926.0,0.5309142846963457
927.0,0.5299987902660547
928.0,0.5288118043785274
929.0,0.5271633364638643
930.0,0.5247231745741724
931.0,0.5215794819426652
932.0,0.5185792950794715
933.0,0.5155913927984598
934.0,0.5125238613854175
935.0,0.5106690892520831
936.0,0.5122019489026537
937.0,0.5154896155759807
938.0,0.5185453272272618
939.0,0.521284588714113
940.0,0.5226041784953477
941.0,0.5228376857757115
942.0,0.5225245903660231
943.0,0.5218045731558191
944.0,0.5208942109479578
945.0,0.5204384849593241
946.0,0.5208406156539123
947.0,0.5216829404531328
948.0,0.5225529501317768
949.0,0.5230817526485241
950.0,0.5232324906604066
951.0,0.5234888531804149
952.0,0.5242292063635865
953.0,0.5248146065114674
954.0,0.5250325616600062
955.0,0.5258844183573302
956.0,0.5262706420647041
957.0,0.5271890280539161
958.0,0.5288117293802177
959.0,0.5293965124154003
960.0,0.5304166637091745
961.0,0.5309224364060904
962.0,0.5309548438605489
963.0,0.5323572546046236
964.0,0.5345497263233032
965.0,0.5367036507187585
966.0,0.5383776937760031
967.0,0.5396651646718725
968.0,0.5405514740131142
969.0,0.5416621457878581
970.0,0.5432113825184921
971.0,0.5448335654703622
972.0,0.5458140900234895
973.0,0.5460291874616073
974.0,0.5460381463331527
975.0,0.5467436918184323
976.0,0.5475048131910673
977.0,0.5484764280578323
978.0,0.5495959564849032
979.0,0.5506492538062474
980.0,0.5517525721490906
981.0,0.5523811425357247
982.0,0.5528049407845422
983.0,0.5536009705599433
984.0,0.554582762351726
985.0,0.5557261038141325
986.0,0.5566213873984567
987.0,0.5568522973246248
988.0,0.556353640654972
989.0,0.5571857890142518
990.0,0.558631099451409
991.0,0.5592210766135481
992.0,0.5583952686430218
993.0,0.5579824247567041
994.0,0.558794953785329
995.0,0.5602156802734234
996.0,0.560005456273163
997.0,0.5607832930455112
998.0,0.5612461969662954
999.0,0.5608067165499595
1000.0,0.5607136719153714
1001.0,0.5712856305022398
1002.0,0.5707647773859013
1003.0,0.5711860838196544
1004.0,0.5720359587015879
1005.0,0.572605016237896
1006.0,0.5735568944915563
1007.0,0.5743600630631721
1008.0,0.5748105003539894
1009.0,0.5755585715049933
1010.0,0.5765957343397378
1011.0,0.5769024584936097
1012.0,0.5763984082319021
1013.0,0.5757082097145264
1014.0,0.5757487231692219
1015.0,0.5761530204293408
1016.0,0.5765379017594334
1017.0,0.5778616305210407
1018.0,0.5785067460940623
1019.0,0.5784837838540071
1020.0,0.5787161639721271
1021.0,0.5791307590701649
1022.0,0.5794240592817395
1023.0,0.5792552974008988
1024.0,0.5796305798914377
1025.0,0.5798913309308367
1026.0,0.5794538946359441
1027.0,0.5794741681164565
1028.0,0.5799304794261931
1029.0,0.5803378025197319
1030.0,0.5811202404752478
1031.0,0.5816141834550714
1032.0,0.5818728015750925
1033.0,0.582262458737661
1034.0,0.5827525225644886
1035.0,0.5830027430648623
1036.0,0.5833113626894091
1037.0,0.5834539052118505
1038.0,0.5828972758462074
1039.0,0.5824628301132774
1040.0,0.5821408444335695
1041.0,0.5822056270460005
1042.0,0.5830123894591251
1043.0,0.5833304697667024
1044.0,0.5837541880288543
1045.0,0.5845521532628754
1046.0,0.5849375017424739
1047.0,0.5850792473823577
1048.0,0.585341847577104
1049.0,0.585328741694696
1050.0,0.5854539018949897
1051.0,0.5854436556465998
1052.0,0.5861556734081168
1053.0,0.5868128365602795
1054.0,0.587006423878117
1055.0,0.5871704448552648
1056.0,0.5869742636593567
1057.0,0.5869346523001095
1058.0,0.5873232377200197
1059.0,0.5876424215447711
1060.0,0.5880781931101693
1061.0,0.5880456268681895
1062.0,0.5880522208046616
1063.0,0.5881820418063377
1064.0,0.5883708455649042
1065.0,0.588439251286077
1066.0,0.5889065489887616
1067.0,0.5890278474147488
1068.0,0.5890355807839746
1069.0,0.589010404759605
1070.0,0.5886900755498069
1071.0,0.5887538512394037
1072.0,0.5892856092620173
1073.0,0.5895920149992939
1074.0,0.5896968949828397
1075.0,0.5900915020977945
1076.0,0.5900700484406903
1077.0,0.589966624358853
1078.0,0.5901847157948269
1079.0,0.5907888144062776
1080.0,0.5910785764233186
1081.0,0.5912880707865192
1082.0,0.5917235504752069
1083.0,0.5920999026743722
1084.0,0.5920422218247027
1085.0,0.5918344189432297
1086.0,0.591916674999077
1087.0,0.5919954637249425
1088.0,0.5922044278760809
1089.0,0.5925158717811122
1090.0,0.5926000403160226
1091.0,0.5925058444341028
1092.0,0.5923547904967923
1093.0,0.5923525340399236
1094.0,0.5925021566276384
1095.0,0.5928240474271322
1096.0,0.5931096994446292
1097.0,0.5932426957602314
1098.0,0.5934441195000794
1099.0,0.5933880124918575
1100.0,0.5933277772799918
1101.0,0.5934284373827343
1102.0,0.5932157475515515
1103.0,0.5932293013457309
1104.0,0.5929872569038618
1105.0,0.5926832017419263
1106.0,0.5929787988653125
1107.0,0.5930350012224916
1108.0,0.5930810090367064
1109.0,0.5932190054801999
1110.0,0.5930316082790625
1111.0,0.5927692367893899
1112.0,0.5922957379347943
1113.0,0.591891985385144
1114.0,0.5911303154948165
1115.0,0.5898884739141259
1116.0,0.5886843720195979
1117.0,0.5874518939957954
1118.0,0.5863081600269417
1119.0,0.5852759806374662
1120.0,0.5839496694531909
1121.0,0.583016834623715
1122.0,0.5823250479356334
1123.0,0.5813301479784649
1124.0,0.5809500377957518
1125.0,0.5794775000064869
1126.0,0.5790121930303039
1127.0,0.5791757618232708
1128.0,0.5795028898379511
1129.0,0.5801086118675068
1130.0,0.5814726420420685
1131.0,0.5820461235072879
1132.0,0.5828208546086999
1133.0,0.5844466648508342
1134.0,0.585542840224668
1135.0,0.5872552949184726
1136.0,0.588807355730243
