Wavelength (nm),Reflectance
350.0,0.13842092353211347
351.0,0.13899661574328998
352.0,0.13939128251592323
353.0,0.14035725940017815
354.0,0.14120030473360698
355.0,0.1420309993050374
356.0,0.1430281071528808
357.0,0.14430984744244682
358.0,0.14515586113287274
359.0,0.14596362844550853
360.0,0.14697179410416125
361.0,0.1479324844353945
362.0,0.1484381510015712
363.0,0.14898893954623257
364.0,0.14997677194690595
365.0,0.15106323483704545
366.0,0.15187348347934398
367.0,0.1525643394493395
368.0,0.15342597312237008
369.0,0.15432851024726463
370.0,0.15530105629728996
371.0,0.15638198124438255
372.0,0.1575877335542967
373.0,0.158800905145354
374.0,0.15986395214716498
375.0,0.16083121888129737
376.0,0.16199235535746462
377.0,0.16324432963065297
378.0,0.16434949547848698
379.0,0.16533222589023744
380.0,0.1667689649812461
381.0,0.1682433718075497
382.0,0.16948648451708556
383.0,0.1705232662463337
384.0,0.1722234663641646
385.0,0.17391415952610922
386.0,0.17538819861800198
387.0,0.1767140774860372
388.0,0.17787505123956843
389.0,0.17933122943346227
390.0,0.18088244761155867
391.0,0.18180615704391628
392.0,0.18317893960410198
393.0,0.18465448095905876
394.0,0.18594906098561995
395.0,0.18723534212252765
396.0,0.18866570162821242
397.0,0.18995333119387434
398.0,0.19097828342572928
399.0,0.19230526983187096
400.0,0.19343752963581232
401.0,0.19438612078688733
402.0,0.1953450474436241
403.0,0.1962624328757304
404.0,0.1972592674998882
405.0,0.19838606385554305
406.0,0.1996071846744365
407.0,0.20065938943213496
408.0,0.20174236063005055
409.0,0.2029240378497867
410.0,0.20392480006867256
411.0,0.20492773584554672
412.0,0.20597729842409215
413.0,0.2070637151234555
414.0,0.20812377783073135
415.0,0.20920953764729228
416.0,0.21031620554196445
417.0,0.2113974608325494
418.0,0.21235297901276845
419.0,0.21342637137293247
420.0,0.2146149037481536
421.0,0.21563829639842957
422.0,0.21670449872273867
423.0,0.21783295755782506
424.0,0.21900435171826782
425.0,0.2201934885970184
426.0,0.2213843295040625
427.0,0.2225352421041131
428.0,0.22364761729338348
429.0,0.22494554540457967
430.0,0.22629137679164113
431.0,0.22758106385141336
432.0,0.22878527762684003
433.0,0.23017258045811584
434.0,0.23146269982760073
435.0,0.23256481247091754
436.0,0.23374850737059336
437.0,0.23494393796614324
438.0,0.23612202180138683
439.0,0.23727937607059535
440.0,0.23848943360993233
441.0,0.23962583588166483
442.0,0.2407408229278181
443.0,0.24195328345898717
444.0,0.2431329173341834
445.0,0.2442696326137554
446.0,0.24537216487548716
447.0,0.24645597693454485
448.0,0.24752503182696758
449.0,0.24860769649717737
450.0,0.24969324127766154
451.0,0.2506612208040212
452.0,0.2516593861239998
453.0,0.25267713191121266
454.0,0.2536408369812129
455.0,0.25452359269303815
456.0,0.2554488869634291
457.0,0.25641470492735147
458.0,0.25729551254712885
459.0,0.25812265228531756
460.0,0.2589238131406387
461.0,0.25970220182286213
462.0,0.2603978728680707
463.0,0.2611209648355947
464.0,0.26184907117251427
465.0,0.262523947785684
466.0,0.2631505633275033
467.0,0.2638327531028351
468.0,0.2645701343895346
469.0,0.2652753135472375
470.0,0.26595130960779023
471.0,0.2666364135245918
472.0,0.2673380537312296
473.0,0.26800087985502447
474.0,0.26857785225887393
475.0,0.26919811402987814
476.0,0.2699668450547145
477.0,0.2706589238164151
478.0,0.271389677491446
479.0,0.2721714001548235
480.0,0.2729364357920295
481.0,0.2736309711925706
482.0,0.2743527973165776
483.0,0.2751567173917307
484.0,0.27598520422211276
485.0,0.2768377725321912
486.0,0.2777239496891783
487.0,0.27863551789370666
488.0,0.2794888368984757
489.0,0.2803162668715772
490.0,0.2811433814613632
491.0,0.2819968785517263
492.0,0.28290462489815443
493.0,0.28384898184979107
494.0,0.28480500351028964
495.0,0.2857482573790442
496.0,0.2867236638262572
497.0,0.2876939334429379
498.0,0.28862631160079105
499.0,0.28955465486371795
500.0,0.2905737515068696
501.0,0.291647492963367
502.0,0.29266900956597197
503.0,0.29379254062636945
504.0,0.2948491784425222
505.0,0.2958117003623681
506.0,0.296919832900434
507.0,0.29802295730634787
508.0,0.29910832537498455
509.0,0.300199991580043
510.0,0.30130255210704115
511.0,0.30244472900813874
512.0,0.30362382700213353
513.0,0.304813420130594
514.0,0.30595879562360107
515.0,0.30715533451132737
516.0,0.30843946734291644
517.0,0.3097062583695626
518.0,0.3110452220743035
519.0,0.3123461915544578
520.0,0.31351380030661663
521.0,0.3147463123355199
522.0,0.3159977786893295
523.0,0.3172567297308481
524.0,0.3185331453587258
525.0,0.3198897332793377
526.0,0.3212518489219474
527.0,0.32257166989607694
528.0,0.32389276655320487
529.0,0.3252543819046572
530.0,0.3266482170517798
531.0,0.32807000256676255
532.0,0.3294826386977819
533.0,0.3309366693605935
534.0,0.3324359972291337
535.0,0.3339568781359375
536.0,0.3355065821234124
537.0,0.33704246945494165
538.0,0.33856413659870305
539.0,0.34010797193152675
540.0,0.34172284423434124
541.0,0.3433804032243606
542.0,0.3450379330456203
543.0,0.34672994886724307
544.0,0.34831310248303293
545.0,0.34982667447130583
546.0,0.35144833211406595
547.0,0.353082728446401
548.0,0.35478279450442946
549.0,0.3565604458899363
550.0,0.3582876776807468
551.0,0.3600189952732442
552.0,0.36179753743437537
553.0,0.3636422829522101
554.0,0.3654797696695216
555.0,0.36734078761232763
556.0,0.369212202427517
557.0,0.3710280645804403
558.0,0.3728777559257818
559.0,0.374722166962582
560.0,0.3765200734924002
561.0,0.3783354577983411
562.0,0.38015931406000963
563.0,0.38197517050144103
564.0,0.3837601854935568
565.0,0.3854868702854142
566.0,0.38721850520478784
567.0,0.38897383163977317
568.0,0.3907074647196814
569.0,0.39249769145071456
570.0,0.3942546471189088
571.0,0.3959009885738782
572.0,0.3976020202924056
573.0,0.39925930078314337
574.0,0.4008616560213435
575.0,0.4024511655147778
576.0,0.4040525631798274
577.0,0.40559107033740127
578.0,0.40708439970864113
579.0,0.40871953813511813
580.0,0.41034836502711036
581.0,0.41193618376314467
582.0,0.413482453217615
583.0,0.4149561951053113
584.0,0.41646460029621474
585.0,0.4179785117606288
586.0,0.4193673724209417
587.0,0.42066976364581393
588.0,0.42185574993498626
589.0,0.4229423374629371
590.0,0.42400944324906165
591.0,0.425113568297814
592.0,0.42623555176430244
593.0,0.4273520006667554
594.0,0.4283746983780835
595.0,0.4293437786486979
596.0,0.430310524828725
597.0,0.43133530432946704
598.0,0.4323591374674083
599.0,0.43333195375715894
600.0,0.43423504521063067
601.0,0.4351240203872419
602.0,0.43594163654664814
603.0,0.4367322642474115
604.0,0.4375547539973025
605.0,0.4383172626735221
606.0,0.4390048776842367
607.0,0.4396677908332061
608.0,0.44041047187720517
609.0,0.44103768639781227
610.0,0.4415802127307046
611.0,0.4421239490802341
612.0,0.44278538501797976
613.0,0.4433496306798594
614.0,0.44383477010213696
615.0,0.4443566044246033
616.0,0.44483873934030865
617.0,0.44537296811116595
618.0,0.4459530427737403
619.0,0.4464539467156729
620.0,0.44685805689834224
621.0,0.4472407672987858
622.0,0.4476690753391565
623.0,0.4481072792031588
624.0,0.4485543906096361
625.0,0.4490034146044096
626.0,0.44943592050731934
627.0,0.44977087495481904
628.0,0.4500617483137772
629.0,0.450393932939639
630.0,0.45087282344123936
631.0,0.45142030858974164
632.0,0.45196855765627053
633.0,0.45247956185517607
634.0,0.4530303846664996
635.0,0.45347101052543826
636.0,0.4538637845327851
637.0,0.45439072131578717
638.0,0.45486659194738654
639.0,0.4552863518719146
640.0,0.4556995582708641
641.0,0.45619921816592246
642.0,0.45666511173323976
643.0,0.45709399605450385
644.0,0.45751107085308906
645.0,0.4578576308549544
646.0,0.4582214384531419
647.0,0.45860129154486734
648.0,0.4589350865584943
649.0,0.4594203103028022
650.0,0.45998442453562566
651.0,0.4605082111759901
652.0,0.4608841276330629
653.0,0.4613528712801498
654.0,0.46184301420759116
655.0,0.4622262377932452
656.0,0.4626163411547655
657.0,0.46311353047036186
658.0,0.4636650427842517
659.0,0.46417635625272313
660.0,0.46460719135665557
661.0,0.4650934621901452
662.0,0.46564973826796846
663.0,0.4659879771503558
664.0,0.4663092134423116
665.0,0.466708019330238
666.0,0.46721100670402915
667.0,0.46768541903297384
668.0,0.46814375752523835
669.0,0.468611082929129
670.0,0.4691177348726995
671.0,0.469575052286305
672.0,0.4700556077578459
673.0,0.4705960103651257
674.0,0.47108130867970843
675.0,0.47161048628083874
676.0,0.47218375817481667
677.0,0.4727569173545764
678.0,0.4732930972608206
679.0,0.4738438882704507
680.0,0.47443102343765736
681.0,0.4750388791155335
682.0,0.47574159681351663
683.0,0.47645315460853765
684.0,0.47707028118222966
685.0,0.4775728888382299
686.0,0.4776176147048008
687.0,0.47743783583512156
688.0,0.4776761001895541
689.0,0.4787598879493242
690.0,0.47996501522765866
691.0,0.4810255366585602
692.0,0.48206395417562325
693.0,0.48279702315855916
694.0,0.48345734814779107
695.0,0.4842628679062731
696.0,0.48523566337351526
697.0,0.48615326947657733
698.0,0.48690913010521253
699.0,0.48747941435587694
700.0,0.4880433974386308
701.0,0.4886663907369605
702.0,0.48936715945579645
703.0,0.49011479704114314
704.0,0.49083167339153827
705.0,0.49153048885972095
706.0,0.4922389281728447
707.0,0.49296345472154085
708.0,0.4935875754171417
709.0,0.49419994109279913
710.0,0.49492304892567196
711.0,0.49561256742297227
712.0,0.4962255121254148
713.0,0.4967860299254682
714.0,0.49736085939155
715.0,0.49774533091910256
716.0,0.4977732666121839
717.0,0.49746515780967193
718.0,0.4972651673509581
719.0,0.49763235544470963
720.0,0.49866901027674154
721.0,0.5000401875645243
722.0,0.5012693094412437
723.0,0.5016703331582985
724.0,0.5015269300271107
725.0,0.5019002492219496
726.0,0.5025558959822377
727.0,0.5032748224646102
728.0,0.5039331843589061
729.0,0.5045383732706823
730.0,0.505141275613872
731.0,0.5058547146696643
732.0,0.5067275196950033
733.0,0.5075789232080795
734.0,0.5083383925346652
735.0,0.5089726958723885
736.0,0.5094602603021513
737.0,0.5099278781443852
738.0,0.5104270123309723
739.0,0.5109814766116609
740.0,0.5115727588462506
741.0,0.5121150964621927
742.0,0.5125791901534712
743.0,0.512975400532744
744.0,0.5133743429483512
745.0,0.51390860950043
746.0,0.5144648557647504
747.0,0.5148524896000363
748.0,0.5153267384830126
749.0,0.5157543328358455
750.0,0.5161040829598921
751.0,0.5164932898239584
752.0,0.5169302902011232
753.0,0.5173571231117939
754.0,0.5177398514249978
755.0,0.5181410062124454
756.0,0.5185075891223143
757.0,0.5187707747469494
758.0,0.5187248848399398
759.0,0.5170738237394198
760.0,0.5131497471875403
761.0,0.5077019457713932
762.0,0.5091912896641405
763.0,0.5102957373376327
764.0,0.5122274154898623
765.0,0.5151984902720516
766.0,0.5180009136940243
767.0,0.5196709122037726
768.0,0.5205817318243361
769.0,0.521093149940103
770.0,0.5214092422788538
771.0,0.5216503369601112
772.0,0.5218846889097637
773.0,0.5221210330590278
774.0,0.5221718914393454
775.0,0.5222451844688824
776.0,0.5223962042498588
777.0,0.5224998195390639
778.0,0.5225870035980149
779.0,0.5226346989570119
780.0,0.5226505398825645
781.0,0.5227179650215897
782.0,0.5227527008307997
783.0,0.5226964561495677
784.0,0.5225624694941051
785.0,0.5225866545693817
786.0,0.5226214820699675
787.0,0.5226080283429256
788.0,0.5225422794301151
789.0,0.5223700349411254
790.0,0.522240079224169
791.0,0.5221778133521997
792.0,0.5220555909065571
793.0,0.522062136180128
794.0,0.5220878592272888
795.0,0.522019347019931
796.0,0.5218563867129807
797.0,0.5216841151665379
798.0,0.5215650371953484
799.0,0.5215078024028731
800.0,0.5213830585501241
801.0,0.5212227126949514
802.0,0.5210624911555645
803.0,0.5209380666370392
804.0,0.5208778414599409
805.0,0.5209075469812179
806.0,0.5209148448605952
807.0,0.520681864789006
808.0,0.5204926467302569
809.0,0.5203420201354857
810.0,0.5201545597334014
811.0,0.5198227432958324
812.0,0.519398931530098
813.0,0.518855015173
814.0,0.5182167036019851
815.0,0.5177763747804981
816.0,0.517400786259208
817.0,0.5172022395136535
818.0,0.517320465250342
819.0,0.5174585030366354
820.0,0.517592468624315
821.0,0.5174922298205373
822.0,0.5168585194018788
823.0,0.5165960524493431
824.0,0.5168255331897169
825.0,0.5171718382489161
826.0,0.5169785782592641
827.0,0.5167745923742801
828.0,0.5165383380410967
829.0,0.5162582001387495
830.0,0.5161646846423521
831.0,0.5159948901648378
832.0,0.51585918952857
833.0,0.5158806587283362
834.0,0.5157943095492121
835.0,0.5157416201458879
836.0,0.5157540237526631
837.0,0.5157801178448513
838.0,0.5156442856513695
839.0,0.5155039200298243
840.0,0.5154284667776927
841.0,0.5153888534177226
842.0,0.5153248348751878
843.0,0.5151691380239202
844.0,0.5149472052053344
845.0,0.5147901020254225
846.0,0.5147026065532059
847.0,0.5145945704456877
848.0,0.5144234511989877
849.0,0.514277439084011
850.0,0.5141149416529756
851.0,0.5140717888935642
852.0,0.5141951725735245
853.0,0.5141613790074927
854.0,0.514019257567055
855.0,0.5138705081927551
856.0,0.5138062441421102
857.0,0.513746072851657
858.0,0.513604918696025
859.0,0.5134932365514672
860.0,0.5135497739128321
861.0,0.5133532417255824
862.0,0.5133264037089101
863.0,0.5134196429266353
864.0,0.5132155973699369
865.0,0.5131678733427711
866.0,0.5130889966680975
867.0,0.5129727991806251
868.0,0.5130868529732078
869.0,0.5130942000654216
870.0,0.5130238028649254
871.0,0.5129562680130121
872.0,0.51295087843475
873.0,0.5130159536323318
874.0,0.5130478615198248
875.0,0.5130140819544753
876.0,0.5130982154539826
877.0,0.5130573679005361
878.0,0.5130421253804012
879.0,0.5131501551149009
880.0,0.5129394468126187
881.0,0.5129632169938214
882.0,0.5132034115939151
883.0,0.5134014188743914
884.0,0.5133006889079381
885.0,0.5134315956115374
886.0,0.5136500689063919
887.0,0.513597914493591
888.0,0.5136866454765968
889.0,0.5139789732311232
890.0,0.5141939012665887
891.0,0.5139971393306108
892.0,0.5141003288657624
893.0,0.5139008423251522
894.0,0.513401802388455
895.0,0.5131574914867608
896.0,0.5129868901386214
897.0,0.5127140060034978
898.0,0.5123886086205804
899.0,0.51230457443994
900.0,0.5124910697302304
901.0,0.5128643742649868
902.0,0.5133321830259282
903.0,0.5138351525974221
904.0,0.514238537817745
905.0,0.5143184912654474
906.0,0.514100600281942
907.0,0.5139490507462744
908.0,0.5140154784550678
909.0,0.5140155331118638
910.0,0.5138552033146432
911.0,0.5138973058696861
912.0,0.514003690180912
913.0,0.513878416022964
914.0,0.5136649691270743
915.0,0.5142690955995419
916.0,0.5150994239993288
917.0,0.5158018699386306
918.0,0.516393062716625
919.0,0.517420519886254
920.0,0.5179640324955864
921.0,0.5181314592268441
922.0,0.518268436164719
923.0,0.5186429814140523
924.0,0.5189082241570194
925.0,0.5188776575910046
926.0,0.5184658155981651
927.0,0.5177111869558927
928.0,0.5165969844182523
929.0,0.515011052191315
930.0,0.512936703158581
931.0,0.5108207269447558
932.0,0.508482936461707
933.0,0.5056843673752898
934.0,0.5026972875574118
935.0,0.5010664738995698
936.0,0.5024340584901654
937.0,0.5050937426248842
938.0,0.5072339061696575
939.0,0.508990873318102
940.0,0.5103118344161988
941.0,0.5109809817222415
942.0,0.5109860133736663
943.0,0.5108646009640554
944.0,0.5099467489622694
945.0,0.509239634331984
946.0,0.5094748311205634
947.0,0.5094904285062914
948.0,0.5107556605596428
949.0,0.511720754178992
950.0,0.511480429115021
951.0,0.5118796608516364
952.0,0.5125781500554347
953.0,0.5133952561255796
954.0,0.5140345746232763
955.0,0.5140515890800993
956.0,0.5145906151062168
957.0,0.51571713895563
958.0,0.5169272293779008
959.0,0.5173766071019552
960.0,0.5187368860282617
961.0,0.5191309892119575
962.0,0.5185720222225361
963.0,0.5202529774485735
964.0,0.5224717254961557
965.0,0.5241201774684644
966.0,0.5252223974725783
967.0,0.5268056081670779
968.0,0.5276619233941297
969.0,0.5284488679480096
970.0,0.5296868397133705
971.0,0.5313661485794877
972.0,0.5327636035469002
973.0,0.5334939094177198
974.0,0.5335941395806033
975.0,0.5335714495066418
976.0,0.5345203956548229
977.0,0.5355292838771798
978.0,0.5363144903955757
979.0,0.5372237148463826
980.0,0.5384261943973104
981.0,0.5389272330526996
982.0,0.5390846147586956
983.0,0.5398010684229867
984.0,0.5407043013494889
985.0,0.541894024342193
986.0,0.5427451696627033
987.0,0.5427550973035196
988.0,0.5426925245871376
989.0,0.5439927226798181
990.0,0.5451506584103045
991.0,0.5447107410147077
992.0,0.5440454968707766
993.0,0.5436309822072152
994.0,0.5446290748762098
995.0,0.5465354514561055
996.0,0.5461142124543279
997.0,0.5468773557865861
998.0,0.5475567415309242
999.0,0.5472261171925278
1000.0,0.5466985879360575
1001.0,0.5639328023664973
1002.0,0.5641678649763013
1003.0,0.5646170831948745
1004.0,0.5648086853658555
1005.0,0.5651507259650264
1006.0,0.5658881358244172
1007.0,0.5665239655216504
1008.0,0.5668726762694489
1009.0,0.5677866001461364
1010.0,0.5688183785042253
1011.0,0.5691041741474543
1012.0,0.5686236229101144
1013.0,0.5680652673937927
1014.0,0.5681288581547486
1015.0,0.5684967721075077
1016.0,0.5688277819507276
1017.0,0.5699734454966339
1018.0,0.5704898383354801
1019.0,0.570351841564907
1020.0,0.5705391302054716
1021.0,0.5709197179505535
1022.0,0.5712591956723855
1023.0,0.57113612704069
1024.0,0.5713647624673798
1025.0,0.5715242531324933
1026.0,0.5711292277516684
1027.0,0.5712643946121468
1028.0,0.5719207081953152
1029.0,0.5725148189568519
1030.0,0.5732324510708541
1031.0,0.5736580480667752
1032.0,0.573737944704455
1033.0,0.5740954684390145
1034.0,0.5745339787871088
1035.0,0.5747572210162188
1036.0,0.5751427711797057
1037.0,0.575273771096458
1038.0,0.5747905577111444
1039.0,0.5744755356372595
1040.0,0.5741709658300622
1041.0,0.5741650976878361
1042.0,0.5747094801722559
1043.0,0.5747533239890713
1044.0,0.5751199352663059
1045.0,0.5758497920265274
1046.0,0.5762031244364044
1047.0,0.5764011478820392
1048.0,0.576646386702132
1049.0,0.5766648404307428
1050.0,0.576793061816927
1051.0,0.5767853320054361
1052.0,0.5772650901701659
1053.0,0.57775649787742
1054.0,0.5777642643243484
1055.0,0.5779764851477457
1056.0,0.5780663997507578
1057.0,0.5783227176717094
1058.0,0.5789891294495049
1059.0,0.5793424003106599
1060.0,0.5795888622585497
1061.0,0.5796591932254781
1062.0,0.5800000584326442
1063.0,0.5802837439870094
1064.0,0.5806430663405927
1065.0,0.5809171089656616
1066.0,0.5812992714695822
1067.0,0.5810236997576973
1068.0,0.5807707999037065
1069.0,0.5805500795189745
1070.0,0.5801197862367631
1071.0,0.5802719001828652
1072.0,0.5806429721657286
1073.0,0.580918246178737
1074.0,0.5812695682321093
1075.0,0.5816550730117591
1076.0,0.5817809152162416
1077.0,0.5819092834279506
1078.0,0.5822172020506604
1079.0,0.5827467501832342
1080.0,0.5830585364772777
1081.0,0.5832815727854722
1082.0,0.5835640167659655
1083.0,0.5837602387759064
1084.0,0.5836799939172815
1085.0,0.5835367811100376
1086.0,0.5837335257437771
1087.0,0.5840055685219012
1088.0,0.5843557831886963
1089.0,0.5847750369413319
1090.0,0.584899203270347
1091.0,0.5847937363745691
1092.0,0.5846155811753595
1093.0,0.5844814289468185
1094.0,0.5845667598488014
1095.0,0.5848455470658257
1096.0,0.5851341864167839
1097.0,0.5853655116606937
1098.0,0.5858886347955328
1099.0,0.5861459444447076
1100.0,0.5862918370610254
1101.0,0.5864919698952196
1102.0,0.5861457924230438
1103.0,0.5858936019067232
1104.0,0.585586029709432
1105.0,0.5852823715510805
1106.0,0.585415831740185
1107.0,0.5854750720693607
1108.0,0.5856692069482348
1109.0,0.5858934720121328
1110.0,0.5860298955324853
1111.0,0.5860196469416133
1112.0,0.5858825728566283
1113.0,0.5855874483723543
1114.0,0.585100303423971
1115.0,0.5839361712475133
1116.0,0.5825864245866934
1117.0,0.5814384313386776
1118.0,0.5802802420258042
1119.0,0.5792385224912431
1120.0,0.577989130651838
1121.0,0.5770925674038336
1122.0,0.5766233171383146
1123.0,0.5756946133217997
1124.0,0.5752084781539045
1125.0,0.5738457220651009
1126.0,0.5734566357306448
1127.0,0.5734394609422967
1128.0,0.5737598334951794
1129.0,0.5746003229053369
1130.0,0.5759948171359363
1131.0,0.5767184920914324
1132.0,0.5774716025460095
1133.0,0.5788176875879542
1134.0,0.5796722001997737
1135.0,0.5808510181351753
1136.0,0.5818581792160767
1137.0,0.5824615381581182
