Wavelength (nm),Reflectance
350.0,0.11920599114043919
351.0,0.11963508121012727
352.0,0.12023030620867318
353.0,0.12112304634468
354.0,0.12156423386108559
355.0,0.12211335850648303
356.0,0.1228189751510665
357.0,0.12321974295208744
358.0,0.1239661732679092
359.0,0.12476177818516881
360.0,0.1255085846058319
361.0,0.12662104033799004
362.0,0.12707550346984958
363.0,0.12745250419410525
364.0,0.1282775351995534
365.0,0.12905379609779316
366.0,0.1295857440748197
367.0,0.13011815432160584
368.0,0.13095603540998293
369.0,0.13187138675798518
370.0,0.1326445573539344
371.0,0.13339742817280492
372.0,0.13444493718601666
373.0,0.13570484215711806
374.0,0.13663648766727546
375.0,0.1372712851380894
376.0,0.13831757405550346
377.0,0.1394594272867833
378.0,0.14039770165821386
379.0,0.14116322601219927
380.0,0.1424193875186686
381.0,0.14378637398364189
382.0,0.14491353346708163
383.0,0.1457292956939704
384.0,0.14708967660305658
385.0,0.1485958707454156
386.0,0.14999414205143535
387.0,0.15117047943967363
388.0,0.1522431781542271
389.0,0.1534270180816915
390.0,0.15463732507776523
391.0,0.1555656694979225
392.0,0.15694360388676604
393.0,0.15841822243834644
394.0,0.1596628078971139
395.0,0.16067657068352292
396.0,0.16176491467035778
397.0,0.16292774486859352
398.0,0.16407388110026197
399.0,0.1651302513878914
400.0,0.1659850294770456
401.0,0.1667632970554317
402.0,0.1676458040408396
403.0,0.16855392068512923
404.0,0.1695087982894355
405.0,0.1704850054434612
406.0,0.17142196752902011
407.0,0.1724059342807576
408.0,0.1734758880667499
409.0,0.17457548509441326
410.0,0.17550348022865261
411.0,0.17646488152018394
412.0,0.1774318133224346
413.0,0.17832924626314448
414.0,0.17910935971708222
415.0,0.18007846355246293
416.0,0.1811810335508505
417.0,0.18218008510583908
418.0,0.18306411305341708
419.0,0.18402443629059806
420.0,0.18509245240702532
421.0,0.18611337287160667
422.0,0.18710593225730304
423.0,0.18810732615426728
424.0,0.18914159159086927
425.0,0.19016965848946343
426.0,0.19137970007232477
427.0,0.19260100012015322
428.0,0.1936390015417423
429.0,0.19485488048957098
430.0,0.19613856627906964
431.0,0.19738684036457083
432.0,0.19854115196463343
433.0,0.19971797792888854
434.0,0.2008950301412847
435.0,0.2020509505282523
436.0,0.20319341214773437
437.0,0.20433813290972774
438.0,0.205499573624202
439.0,0.2066644847303134
440.0,0.20774762061562677
441.0,0.20878601259050306
442.0,0.209842656945418
443.0,0.21096874970928167
444.0,0.21203656423891332
445.0,0.21307430532147395
446.0,0.21410285387997027
447.0,0.21511548411480363
448.0,0.21607132848108415
449.0,0.21697994666511924
450.0,0.2178783140594883
451.0,0.21885139052708705
452.0,0.21980913897238552
453.0,0.22070725479937456
454.0,0.2215324967941261
455.0,0.22232232604609722
456.0,0.2231088096549105
457.0,0.22389666768223312
458.0,0.22466552476131463
459.0,0.22542203755671789
460.0,0.22614158762810682
461.0,0.226805045251856
462.0,0.22740445757109234
463.0,0.22802172168470058
464.0,0.2286688774233183
465.0,0.2293194615243574
466.0,0.22990753761497773
467.0,0.23048396217068487
468.0,0.23107669655468974
469.0,0.23168783049313701
470.0,0.23230085344330395
471.0,0.23290397614269107
472.0,0.23349875740764997
473.0,0.23410950140805398
474.0,0.23465750041117067
475.0,0.23523925991258532
476.0,0.23594047875613416
477.0,0.23657780466109266
478.0,0.237217561057407
479.0,0.23788774987483474
480.0,0.23858132382393274
481.0,0.23926666888762457
482.0,0.23994854839859853
483.0,0.24066334583440788
484.0,0.24148344870597732
485.0,0.2423222044753449
486.0,0.24316828148187303
487.0,0.24400903190533824
488.0,0.2447338703311278
489.0,0.24548260334507294
490.0,0.24629323950157156
491.0,0.24713687001262394
492.0,0.24800442326992042
493.0,0.24888912990835366
494.0,0.24978930503984376
495.0,0.2507124363207848
496.0,0.25162020879804237
497.0,0.252523389441771
498.0,0.25344313473058583
499.0,0.2543534973919939
500.0,0.2553527127688173
501.0,0.25640557026554
502.0,0.2574000634090405
503.0,0.25843942797851965
504.0,0.2594323221759008
505.0,0.2603676638596897
506.0,0.2613881663111546
507.0,0.26242682583064797
508.0,0.2634750199817197
509.0,0.2645370652906334
510.0,0.26560130998338843
511.0,0.266656034637949
512.0,0.267746145943681
513.0,0.26893137390901983
514.0,0.2700210838345897
515.0,0.27113458248536254
516.0,0.2723515560712099
517.0,0.27361205375109
518.0,0.27483175524704956
519.0,0.27600790075665926
520.0,0.27716024188086147
521.0,0.2783065690768654
522.0,0.279455428315553
523.0,0.2806358397887167
524.0,0.28187837650166464
525.0,0.28316899692651776
526.0,0.2844789688177768
527.0,0.2857780654705947
528.0,0.2870528968051581
529.0,0.28830298773828794
530.0,0.28959585994097065
531.0,0.29099752928421074
532.0,0.29238115949599375
533.0,0.2937998005283327
534.0,0.2952391236043758
535.0,0.2966478893981224
536.0,0.298100975429697
537.0,0.29958356263681346
538.0,0.3010845579226668
539.0,0.30257276503691277
540.0,0.3041376641134425
541.0,0.3057324628013264
542.0,0.307284243829423
543.0,0.30882893744549883
544.0,0.31031904152475376
545.0,0.3117861618957765
546.0,0.3133123396637287
547.0,0.3148409185644342
548.0,0.316415362236975
549.0,0.3180557027050193
550.0,0.31970065984750906
551.0,0.3213442830492346
552.0,0.32303611954654227
553.0,0.32482123351382336
554.0,0.32659823884281364
555.0,0.3284312864668497
556.0,0.33032166103909905
557.0,0.3321926934512691
558.0,0.33410721783086833
559.0,0.3360065052131876
560.0,0.3378301562126588
561.0,0.3396167830941681
562.0,0.3413816792583261
563.0,0.3431335962981407
564.0,0.34486973023047973
565.0,0.34654389494243026
566.0,0.34821260383142677
567.0,0.3499041298187954
568.0,0.35160161461752254
569.0,0.3534394615480135
570.0,0.35532894648432994
571.0,0.3571463291782036
572.0,0.358922665667314
573.0,0.3606661634029657
574.0,0.3623574286815796
575.0,0.3639710188437774
576.0,0.36557607813918847
577.0,0.3670990787540037
578.0,0.3685636776682415
579.0,0.3701766590222715
580.0,0.37176520557003406
581.0,0.3733032808896597
582.0,0.3748229609724295
583.0,0.3763730297240289
584.0,0.3780159951670188
585.0,0.37966793664325255
586.0,0.38114131583410044
587.0,0.38246924191818016
588.0,0.3837365845847376
589.0,0.38498855069440047
590.0,0.386136546078698
591.0,0.3872385760436993
592.0,0.3883289704394325
593.0,0.3894366404432905
594.0,0.39041820628361673
595.0,0.39134403218693886
596.0,0.3922826472285023
597.0,0.3932975016090151
598.0,0.39435105078402594
599.0,0.39534551943651236
600.0,0.39624427810328267
601.0,0.3971776314642446
602.0,0.3980662758523029
603.0,0.3988931967292677
604.0,0.39967518916221323
605.0,0.40046771214494936
606.0,0.4012180859269643
607.0,0.401934680846225
608.0,0.4026911366055021
609.0,0.4033660613937465
610.0,0.40396710102103833
611.0,0.4045415685319554
612.0,0.40517791654866303
613.0,0.4057407709797844
614.0,0.40626985675379973
615.0,0.4068654596838457
616.0,0.4074142347194352
617.0,0.4079570266864296
618.0,0.4084962939274304
619.0,0.4089869152292641
620.0,0.40944036296090897
621.0,0.4098901215325857
622.0,0.4103567899482366
623.0,0.41080569247607673
624.0,0.41126536528754226
625.0,0.4117380782066746
626.0,0.41219962473672445
627.0,0.4125554079218754
628.0,0.41286809866558405
629.0,0.41323483283643997
630.0,0.4137738416091839
631.0,0.41429913934689744
632.0,0.4148059457255777
633.0,0.4153266887858463
634.0,0.4158379223196994
635.0,0.4162963153819819
636.0,0.41671962795768946
637.0,0.4171641689753833
638.0,0.41762629616619346
639.0,0.41809996945102545
640.0,0.4185824592273936
641.0,0.4190674722882801
642.0,0.4195002842074859
643.0,0.41990725447325933
644.0,0.4203338668995845
645.0,0.42075795071464905
646.0,0.42115699161871606
647.0,0.42152371890415297
648.0,0.42187731464818495
649.0,0.4223917782234181
650.0,0.4229616880970253
651.0,0.42347542331607035
652.0,0.4239212185295675
653.0,0.42441265724311034
654.0,0.42491357476761576
655.0,0.42536938447103406
656.0,0.42585317356627594
657.0,0.42635300570228407
658.0,0.42685273846525684
659.0,0.4274149064796092
660.0,0.42792581585513717
661.0,0.42846033865449773
662.0,0.4290269625186531
663.0,0.4294514757921797
664.0,0.4298886743763236
665.0,0.43038792397754216
666.0,0.43094488053568875
667.0,0.43147700022636915
668.0,0.4320237197346109
669.0,0.4325881704236868
670.0,0.43313741793269656
671.0,0.4336144136512245
672.0,0.43410102511827386
673.0,0.4346540621391818
674.0,0.4352226535959797
675.0,0.43578092111862127
676.0,0.4363467430512989
677.0,0.4369378529708074
678.0,0.4374571227021082
679.0,0.43801564130551
680.0,0.438614763953424
681.0,0.4391370464579296
682.0,0.4397715839939943
683.0,0.44044359326263516
684.0,0.44102313392591935
685.0,0.4414007315221097
686.0,0.44149026311511086
687.0,0.44142903318705184
688.0,0.4415640019675012
689.0,0.4423664255883565
690.0,0.44336883413346956
691.0,0.44431790023653206
692.0,0.44516003460471887
693.0,0.4458058832547361
694.0,0.4464061011653488
695.0,0.44709525350199886
696.0,0.4479156225259533
697.0,0.44870391151770195
698.0,0.44937276066496945
699.0,0.4498957579883834
700.0,0.4504245986566962
701.0,0.45103464042174146
702.0,0.45172172486218376
703.0,0.45240270667019367
704.0,0.4530755858917564
705.0,0.4537561850963016
706.0,0.45444748463563084
707.0,0.4550949133505593
708.0,0.45567559178984357
709.0,0.45626093231264797
710.0,0.4569305761530971
711.0,0.45760916743359026
712.0,0.45823090934154975
713.0,0.45878893858548
714.0,0.4593224670924247
715.0,0.4596888627100395
716.0,0.45981649270076685
717.0,0.45973558292041933
718.0,0.45965699711085317
719.0,0.46001677036413524
720.0,0.4609309135453698
721.0,0.4621380660544013
722.0,0.46322079770725766
723.0,0.46365352122428033
724.0,0.463664483537358
725.0,0.4640689064362608
726.0,0.46472059944832284
727.0,0.4653930846038483
728.0,0.46597524654931316
729.0,0.46654339991375593
730.0,0.4671438786686137
731.0,0.4678207664348082
732.0,0.46858816441101964
733.0,0.4694218015984335
734.0,0.4701610801553269
735.0,0.4707573996332984
736.0,0.471222115339784
737.0,0.4716665816131592
738.0,0.4721619246911891
739.0,0.47273103491337004
740.0,0.4733211754634082
741.0,0.4738167168349272
742.0,0.47422748593433556
743.0,0.4746062393002335
744.0,0.4750187288965805
745.0,0.4755315397512726
746.0,0.4760601872375068
747.0,0.47647648176641577
748.0,0.47696087484944377
749.0,0.4773802419096523
750.0,0.47772798018597323
751.0,0.4781591502798608
752.0,0.47852017179147127
753.0,0.47888241439851553
754.0,0.4793015563298027
755.0,0.47970238879970095
756.0,0.48005186400268446
757.0,0.4802611745113275
758.0,0.48015131846259557
759.0,0.47882904311471836
760.0,0.4757596728236952
761.0,0.4713942197105348
762.0,0.47222053495018634
763.0,0.4733794237561786
764.0,0.47523892900976183
765.0,0.477695234400159
766.0,0.48003816761069296
767.0,0.48144318580775963
768.0,0.4822306812495223
769.0,0.4827081173660339
770.0,0.4830536811453549
771.0,0.48328738974451524
772.0,0.483483845043786
773.0,0.48371103566975165
774.0,0.48381042492779486
775.0,0.48388766297527275
776.0,0.4840002814557503
777.0,0.48413342861815895
778.0,0.4842436149641006
779.0,0.48429877306358143
780.0,0.48432229545941474
781.0,0.48444312977230314
782.0,0.4844664296281634
783.0,0.48438856110229367
784.0,0.48429803097862073
785.0,0.48437699641008014
786.0,0.48442117233651366
787.0,0.4843865827267565
788.0,0.4843258111307626
789.0,0.484189122987476
790.0,0.4840971773156476
791.0,0.4840502478142242
792.0,0.4839087999304558
793.0,0.4839252701190807
794.0,0.4839855178829416
795.0,0.4839575168927185
796.0,0.4838272716951212
797.0,0.4836687415937587
798.0,0.4835411674637769
799.0,0.4834680327485749
800.0,0.48338637281348645
801.0,0.4832673103114878
802.0,0.48313339591895993
803.0,0.4830337461674796
804.0,0.48297055755895185
805.0,0.48297137198218915
806.0,0.4829597019642709
807.0,0.48277313414943607
808.0,0.4825666556888252
809.0,0.4824120074300329
810.0,0.4822862766589255
811.0,0.4820196954046589
812.0,0.48168869624542726
813.0,0.48124264850931986
814.0,0.4806762054593077
815.0,0.48026837088620106
816.0,0.4799381602759969
817.0,0.47978021942278426
818.0,0.47987731986248716
819.0,0.47988107212407594
820.0,0.4798883359816801
821.0,0.47979929899726215
822.0,0.47941040251806316
823.0,0.47932017296953755
824.0,0.4794348537736666
825.0,0.47950218302146286
826.0,0.47928876240081414
827.0,0.4792096648722305
828.0,0.479097080097787
829.0,0.4788265547738494
830.0,0.47864532509212426
831.0,0.4784566379951987
832.0,0.4783562967382369
833.0,0.4784072498238338
834.0,0.4783660363379214
835.0,0.4783088176257875
836.0,0.47828800614540934
837.0,0.47830467405686566
838.0,0.47815230836922545
839.0,0.47804400049170326
840.0,0.4780186203240591
841.0,0.4779537389746813
842.0,0.4777924898961697
843.0,0.47763745483544423
844.0,0.47751205591639334
845.0,0.47732229708142065
846.0,0.4771956219166771
847.0,0.4770789368582936
848.0,0.476943699800062
849.0,0.47687691857553466
850.0,0.47684380488507466
851.0,0.4767921369609538
852.0,0.476691497976095
853.0,0.4765821670894299
854.0,0.4765714062827304
855.0,0.4765478601336489
856.0,0.4763847933377144
857.0,0.4762774831807909
858.0,0.476150648972283
859.0,0.4760845225352776
860.0,0.4761740540430043
861.0,0.47603671548881227
862.0,0.4759670637819217
863.0,0.4759769150217957
864.0,0.47584249681499713
865.0,0.4758382515179371
866.0,0.4757655600646924
867.0,0.47562088033146804
868.0,0.47567113833479774
869.0,0.4755668750486212
870.0,0.475527080407475
871.0,0.4756196271141732
872.0,0.47555424427781173
873.0,0.4756142636097295
874.0,0.4756704397136536
875.0,0.47561415258392303
876.0,0.4755889545014958
877.0,0.4756381588872566
878.0,0.4757522672215802
879.0,0.4758403441551269
880.0,0.475616833644064
881.0,0.47557459034341926
882.0,0.4757654793101485
883.0,0.4759988654390148
884.0,0.47589698746887305
885.0,0.47604073662020474
886.0,0.4762853427866447
887.0,0.476254076366275
888.0,0.47640881931916534
889.0,0.476590844400243
890.0,0.47664551573881775
891.0,0.4764993995847765
892.0,0.4764329381620635
893.0,0.47629726016902324
894.0,0.47606914828416436
895.0,0.4758523625440864
896.0,0.4756241599287347
897.0,0.47529586365530985
898.0,0.47502050354882186
899.0,0.475161054219715
900.0,0.47543428960255457
901.0,0.4757197284207419
902.0,0.476038126486157
903.0,0.4765031275398471
904.0,0.4766875197667105
905.0,0.4766491413604408
906.0,0.4765393473473102
907.0,0.47652806442025714
908.0,0.47653808592456337
909.0,0.47654998993597797
910.0,0.47652573983171
911.0,0.47639998474301043
912.0,0.4764168257657675
913.0,0.4763598496785047
914.0,0.47626854573731375
915.0,0.4767649467129277
916.0,0.47739900824614556
917.0,0.47805184400769685
918.0,0.47875550057115734
919.0,0.4796647557225919
920.0,0.48013505376246285
921.0,0.4802328533714028
922.0,0.48022454278208304
923.0,0.4803728949412837
924.0,0.48051893413212743
925.0,0.48046324924428885
926.0,0.4801234831264803
927.0,0.47974114310666705
928.0,0.4788761747826638
929.0,0.47739358859000847
930.0,0.47537142792544346
931.0,0.47326485530468837
932.0,0.471011203281472
933.0,0.4685667679343456
934.0,0.46612180700012423
935.0,0.4643376921387433
936.0,0.4652510484927448
937.0,0.4675352607727486
938.0,0.46961308784768246
939.0,0.4717009347221279
940.0,0.47248361713654824
941.0,0.472821449501644
942.0,0.4733759739962552
943.0,0.47311562370160126
944.0,0.4724514319524695
945.0,0.47192547638577387
946.0,0.47182412127517437
947.0,0.4716575036574567
948.0,0.4731869272244051
949.0,0.4743569971424774
950.0,0.47382434806797824
951.0,0.47358597090089155
952.0,0.4741109835597699
953.0,0.47507349793158615
954.0,0.4759399401675657
955.0,0.4763614075643337
956.0,0.4768513866523652
957.0,0.47790677670110165
958.0,0.47917395814518604
959.0,0.4791638972070707
960.0,0.48004958749182347
961.0,0.48064176739278563
962.0,0.4806359237062132
963.0,0.4817384501156508
964.0,0.4839065344663572
965.0,0.4859058109690833
966.0,0.48716423701409145
967.0,0.4881137146791816
968.0,0.48849200551152494
969.0,0.4893902406853767
970.0,0.4909554937759274
971.0,0.49222356833705655
972.0,0.492849376323218
973.0,0.49328258842716605
974.0,0.49380845947376295
975.0,0.49442554834873387
976.0,0.49512477629242946
977.0,0.4957844634541871
978.0,0.4966030391517073
979.0,0.49781936117753806
980.0,0.49871667879846715
981.0,0.4987143571396532
982.0,0.4986265221563643
983.0,0.4995543736597203
984.0,0.5005272483899542
985.0,0.5014216983090554
986.0,0.501877391019781
987.0,0.5017408684344415
988.0,0.5016306257954194
989.0,0.5029148601767224
990.0,0.5041711311886133
991.0,0.5039319547362867
992.0,0.5032091181935644
993.0,0.502937156570018
994.0,0.5038477028948114
995.0,0.5053915774657554
996.0,0.5052914429356778
997.0,0.5061694898080956
998.0,0.5062185022436716
999.0,0.5051111084273546
1000.0,0.5052736494685692
1001.0,0.5255944688354749
1002.0,0.5254224748464252
1003.0,0.5258459825796414
1004.0,0.5265568405982737
1005.0,0.5269458344565456
1006.0,0.527529912704908
1007.0,0.5280340693008693
1008.0,0.5281177679844405
1009.0,0.5287347162740074
1010.0,0.5296567742681267
1011.0,0.5297387059855007
1012.0,0.5293247052084649
1013.0,0.5290943292531483
1014.0,0.5291800490323082
1015.0,0.5295828001597134
1016.0,0.5299702291315006
1017.0,0.5309402269324636
1018.0,0.531452714074852
1019.0,0.531616226552507
1020.0,0.5317934959712798
1021.0,0.5319717265146385
1022.0,0.5321818767737564
1023.0,0.5319598263801041
1024.0,0.5322066276152586
1025.0,0.5323613500171196
1026.0,0.5319296317506333
1027.0,0.5318954833806767
1028.0,0.5324009713215329
1029.0,0.5331390142792752
1030.0,0.5340541056718221
1031.0,0.5345430744567548
1032.0,0.5347106427032176
1033.0,0.5350842836597771
1034.0,0.5353542825455943
1035.0,0.5355685001933056
1036.0,0.5360754603140758
1037.0,0.5362545316502599
1038.0,0.5356209042837563
1039.0,0.5351798269987604
1040.0,0.534794479168791
1041.0,0.5346699109402843
1042.0,0.5354144428548508
1043.0,0.5357474099307891
1044.0,0.536069327292235
1045.0,0.5369315139908744
1046.0,0.5373376678091581
1047.0,0.5374416738773773
1048.0,0.5376386504312318
1049.0,0.5376015291467307
1050.0,0.5376782225834703
1051.0,0.5376190795367906
1052.0,0.5380768585169553
1053.0,0.5385434632162407
1054.0,0.5388066290390322
1055.0,0.5391436833668859
1056.0,0.5392645224519966
1057.0,0.5396598894879642
1058.0,0.5402053751955153
1059.0,0.5404408311381687
1060.0,0.5407700234616366
1061.0,0.5407385524639623
1062.0,0.5408378848828248
1063.0,0.5409416418048825
1064.0,0.5410704254223921
1065.0,0.5411531715311325
1066.0,0.5416336337078609
1067.0,0.5417782670259161
1068.0,0.5419393064129397
1069.0,0.542008981588983
1070.0,0.5417491344974835
1071.0,0.5418990509493982
1072.0,0.5425282452568275
1073.0,0.543000163203984
1074.0,0.5432118904923536
1075.0,0.5434819673513112
1076.0,0.5433565525069579
1077.0,0.543173330046862
1078.0,0.5433394331839171
1079.0,0.5438514306866945
1080.0,0.5442987500252303
1081.0,0.5446521983883814
1082.0,0.5452212388923334
1083.0,0.545822466352423
1084.0,0.5458675592518117
1085.0,0.5457598105276684
1086.0,0.5459302932792441
1087.0,0.5460062666656226
1088.0,0.5461325591136484
1089.0,0.5464032733143194
1090.0,0.5464875292073441
1091.0,0.5463885481495017
1092.0,0.5463087489931044
1093.0,0.5464584980126997
1094.0,0.54665350721877
1095.0,0.5469406809757262
1096.0,0.5472172071217551
1097.0,0.5475794142118746
1098.0,0.5477913560578181
1099.0,0.5476741230546428
1100.0,0.5477371009067055
1101.0,0.5479010035522027
1102.0,0.5477922318599175
1103.0,0.5478747754114783
1104.0,0.5478343601152046
1105.0,0.5475824044107417
1106.0,0.5475979349812604
1107.0,0.5477689799317528
1108.0,0.5479517416147482
1109.0,0.5481125612767306
1110.0,0.5482346851483718
1111.0,0.5481923717250354
1112.0,0.5479206102278847
1113.0,0.5477226979803579
1114.0,0.5473159885831453
1115.0,0.5463559797798597
1116.0,0.5457216572334144
1117.0,0.5450370080880006
1118.0,0.5440992767591566
1119.0,0.5434861333738105
1120.0,0.5422365707680338
1121.0,0.5411317255919503
1122.0,0.5406993045457844
1123.0,0.5397287028929217
1124.0,0.5391469251096102
1125.0,0.5379101908546206
1126.0,0.5374515660101872
1127.0,0.5373378008784477
1128.0,0.537653254102918
1129.0,0.5384261164023083
1130.0,0.5396785055130444
1131.0,0.5404792101847872
1132.0,0.5412946104517092
