Wavelength (nm),Reflectance
350.0,0.16406036749156294
351.0,0.16492947305631356
352.0,0.16550342369896484
353.0,0.1660996730345063
354.0,0.1669582195390629
355.0,0.16737111385569006
356.0,0.1673133530657271
357.0,0.16745062170358016
358.0,0.16808513916331472
359.0,0.16874089957779484
360.0,0.16918700177389367
361.0,0.16974073029294012
362.0,0.1703299313329669
363.0,0.1709765540833854
364.0,0.17168084964550168
365.0,0.1723934773949812
366.0,0.17281268302655461
367.0,0.1732600101117221
368.0,0.1740442410961755
369.0,0.174376786799668
370.0,0.17448209305968454
371.0,0.17458262028101662
372.0,0.1747997861155099
373.0,0.1745825691247262
374.0,0.174729338773894
375.0,0.1755194962139596
376.0,0.17645813419879133
377.0,0.17701655836319954
378.0,0.17756022454398182
379.0,0.1781345511584036
380.0,0.17772476154898273
381.0,0.17748195222347196
382.0,0.17747458074582018
383.0,0.1774781633792824
384.0,0.17748620971566556
385.0,0.178105093461717
386.0,0.17902630682243695
387.0,0.17965055818595532
388.0,0.18074039512206774
389.0,0.1817485466800986
390.0,0.18222020555893823
391.0,0.18194966406310253
392.0,0.1818253370932525
393.0,0.1815810926805843
394.0,0.1812049208085737
395.0,0.18134007553201173
396.0,0.18187544868305747
397.0,0.18283217503415425
398.0,0.18409412151134136
399.0,0.1853026551191946
400.0,0.1858111114895534
401.0,0.1859087873223234
402.0,0.18614986953228532
403.0,0.18636302652999226
404.0,0.18642736585701952
405.0,0.18638442002800185
406.0,0.18640879265714597
407.0,0.18650338596196575
408.0,0.1868030897501422
409.0,0.18728289483754865
410.0,0.1876399774324574
411.0,0.18798958254068368
412.0,0.18830763638981807
413.0,0.18858180684815845
414.0,0.18896171284142324
415.0,0.18917414622437054
416.0,0.18926447098185403
417.0,0.18944175205573988
418.0,0.1897511961433031
419.0,0.19006768365255555
420.0,0.1903788089384401
421.0,0.19080123349893136
422.0,0.19110251092582922
423.0,0.1914099710529784
424.0,0.19180566567817103
425.0,0.19212347488172937
426.0,0.19233624812914424
427.0,0.19240004512091044
428.0,0.19232348703923371
429.0,0.19229713680065147
430.0,0.19246123484829677
431.0,0.1928746255769954
432.0,0.19351411103306915
433.0,0.19430035118859557
434.0,0.19501326637829353
435.0,0.1954882833283483
436.0,0.19564902911093315
437.0,0.1956798103418614
438.0,0.1957197411370023
439.0,0.1958699146584289
440.0,0.1961626913650327
441.0,0.19660646029893736
442.0,0.19710595613938037
443.0,0.19750490902733542
444.0,0.19763798548401582
445.0,0.19769237141290183
446.0,0.19782944518490816
447.0,0.19813225352446862
448.0,0.19851705770558126
449.0,0.19893642357259714
450.0,0.19929984395548664
451.0,0.19938410178253746
452.0,0.19935351277822236
453.0,0.1993881162974081
454.0,0.19961751889600837
455.0,0.19981864245739267
456.0,0.20017222871629906
457.0,0.2005919329728651
458.0,0.20074371512388078
459.0,0.2008603794984531
460.0,0.2010763304494287
461.0,0.20140854671643
462.0,0.20167832441350825
463.0,0.20185091981436296
464.0,0.20194664149254665
465.0,0.20202497634282238
466.0,0.20216200276908675
467.0,0.20240380446237868
468.0,0.20268988980431948
469.0,0.2028889905803142
470.0,0.20310277296602683
471.0,0.203328747379947
472.0,0.20357622974973738
473.0,0.20390812257220725
474.0,0.20415217908296307
475.0,0.2042725340126515
476.0,0.20432696032430928
477.0,0.20452593516417542
478.0,0.20477111130391748
479.0,0.20502365516187637
480.0,0.20528903334339754
481.0,0.20553490808352964
482.0,0.20577562839215513
483.0,0.20594922596554438
484.0,0.20585146095227821
485.0,0.20562932133650363
486.0,0.2055331925914193
487.0,0.2057951045219406
488.0,0.20647468922165052
489.0,0.20708365947561996
490.0,0.2073702657481238
491.0,0.2073177688911006
492.0,0.20718870250760615
493.0,0.20724560917816973
494.0,0.20754998767915991
495.0,0.20788827119231437
496.0,0.20802775506801355
497.0,0.2080476432916295
498.0,0.20810297855726562
499.0,0.20825509893815913
500.0,0.20828651823935324
501.0,0.20825773996326313
502.0,0.20840491058693197
503.0,0.20872090179689587
504.0,0.20908009836671626
505.0,0.20935033449043464
506.0,0.20942074193913945
507.0,0.20935531325568985
508.0,0.2093199661167782
509.0,0.20944969161630772
510.0,0.20969279262518473
511.0,0.20985768029310897
512.0,0.20992813208479288
513.0,0.21000886569391633
514.0,0.21013486861025119
515.0,0.21022105711501732
516.0,0.21020020692502453
517.0,0.21004682033794123
518.0,0.2102532096816785
519.0,0.21080944507045762
520.0,0.2114350401497163
521.0,0.21160889753441084
522.0,0.21157768809900912
523.0,0.21161684233808445
524.0,0.2119408228474238
525.0,0.21205694219338897
526.0,0.21193525006791303
527.0,0.211817330514536
528.0,0.2122916351386496
529.0,0.21283641798429878
530.0,0.21310949824373115
531.0,0.21297403335590412
532.0,0.21275064425464504
533.0,0.2127034208567653
534.0,0.2129037500407236
535.0,0.2132369741390667
536.0,0.21338147516535474
537.0,0.21345560331886484
538.0,0.21356595369030576
539.0,0.2136469791321373
540.0,0.2137555560616858
541.0,0.2139933912474458
542.0,0.21441512786680525
543.0,0.2148027514432551
544.0,0.2152087206784994
545.0,0.21563871341575516
546.0,0.2160456345779818
547.0,0.21643042064468587
548.0,0.21685741795797528
549.0,0.21732554011270694
550.0,0.21767118067499439
551.0,0.2178772654660007
552.0,0.21794899383673366
553.0,0.21791783079763707
554.0,0.21786293889641198
555.0,0.2176366831421227
556.0,0.2172871026477305
557.0,0.2170824132203662
558.0,0.2170559692532674
559.0,0.21721612414528585
560.0,0.21750554590800095
561.0,0.21776349280463692
562.0,0.2179152947151418
563.0,0.21806765577730045
564.0,0.2183974542783372
565.0,0.21882083862629734
566.0,0.21944933946605502
567.0,0.2202497908372856
568.0,0.22099012159000037
569.0,0.22143727837094365
570.0,0.22156120321135783
571.0,0.2214539066109694
572.0,0.22134994072891773
573.0,0.22121719448644664
574.0,0.22112174528702488
575.0,0.22119391617681183
576.0,0.2216226709330605
577.0,0.22214903452150803
578.0,0.22257090480826
579.0,0.22286507097501718
580.0,0.22323909852527393
581.0,0.2235961002448774
582.0,0.22380028303511132
583.0,0.22394926460097603
584.0,0.22379923443583444
585.0,0.22334954300112217
586.0,0.22281523195912226
587.0,0.222614243054064
588.0,0.2224471070032132
589.0,0.22229430080215187
590.0,0.22289800197197862
591.0,0.22358839525997296
592.0,0.22404308254108168
593.0,0.22419746007107338
594.0,0.22439838234461773
595.0,0.22470458123318518
596.0,0.22507913924639442
597.0,0.22540785650934686
598.0,0.2256067463874732
599.0,0.2256181202967007
600.0,0.22544756610890251
601.0,0.22519142470883097
602.0,0.22504204586998558
603.0,0.22502016568961303
604.0,0.22505206868322677
605.0,0.22504100425299917
606.0,0.22504151148746612
607.0,0.22509585936609375
608.0,0.22521834210940755
609.0,0.22530081547982336
610.0,0.22539170280047166
611.0,0.22552100582741674
612.0,0.2255716470444824
613.0,0.2256533713888591
614.0,0.22576250129625103
615.0,0.22584112432312617
616.0,0.22584720647600215
617.0,0.22599473608610413
618.0,0.22626571041482663
619.0,0.22634509572553968
620.0,0.2263991377528171
621.0,0.22644063013519666
622.0,0.22646930735246068
623.0,0.22655071786336417
624.0,0.22661333199652592
625.0,0.22672603852338646
626.0,0.2269977592400885
627.0,0.22713880541427098
628.0,0.22719098686918482
629.0,0.2272388345268714
630.0,0.2273696402200386
631.0,0.22747100407595813
632.0,0.2275593425879009
633.0,0.22765101274608082
634.0,0.22761842508031332
635.0,0.22761583519053308
636.0,0.22766899729055115
637.0,0.2277162466455658
638.0,0.22781390839006932
639.0,0.22788618170937477
640.0,0.22791361788520303
641.0,0.22800220607267033
642.0,0.22808976307264656
643.0,0.2281591241023372
644.0,0.22821862140450183
645.0,0.22832018617095173
646.0,0.22841351992858933
647.0,0.22850393563152344
648.0,0.22863547518269084
649.0,0.22868718370836635
650.0,0.22877743962636646
651.0,0.22892671384896285
652.0,0.22888215623952146
653.0,0.22894268368579368
654.0,0.22894876023202773
655.0,0.2286878052951491
656.0,0.22852066302113652
657.0,0.22886257994892598
658.0,0.2293879884487276
659.0,0.22929238360543183
660.0,0.22928202268076053
661.0,0.22932517041249817
662.0,0.2293258329894486
663.0,0.22928591051462682
664.0,0.22935595047079507
665.0,0.22948074532290635
666.0,0.22953751625913088
667.0,0.22952744000620542
668.0,0.2295562377008121
669.0,0.2296282299209144
670.0,0.22964690906949006
671.0,0.22964418693980163
672.0,0.22973026868028637
673.0,0.22990646162665743
674.0,0.2298802514269334
675.0,0.22983748127644857
676.0,0.22985749271579872
677.0,0.22995577546970752
678.0,0.23003509968438512
679.0,0.23005783876643662
680.0,0.23003742390295626
681.0,0.2300326306038268
682.0,0.23000445061791813
683.0,0.23000837717060107
684.0,0.2301021613413758
685.0,0.23038400819459828
686.0,0.23005372809754077
687.0,0.22955751255018983
688.0,0.22996496459694138
689.0,0.23037458061087904
690.0,0.23045733346632363
691.0,0.2303087368844482
692.0,0.23027843200070566
693.0,0.23018305554006305
694.0,0.2300949618662599
695.0,0.2300749083062922
696.0,0.23006100859770393
697.0,0.22997980156314782
698.0,0.2299024044932484
699.0,0.22992372467856026
700.0,0.2298906500545636
701.0,0.2298435331313749
702.0,0.2297966258820381
703.0,0.22972697933804398
704.0,0.22968475400062635
705.0,0.2296404898789492
706.0,0.22957588587334657
707.0,0.2295370865549877
708.0,0.22947531969232007
709.0,0.229397736013427
710.0,0.2293317040887935
711.0,0.2292758389047987
712.0,0.2292790140662436
713.0,0.22931288491988525
714.0,0.22928771241091966
715.0,0.229397902409561
716.0,0.22951044046079963
717.0,0.22951705949128468
718.0,0.22950690312207095
719.0,0.22945806036928726
720.0,0.2294866805134449
721.0,0.2296502961529301
722.0,0.22965011897048446
723.0,0.22948686507693605
724.0,0.2293407825690477
725.0,0.22953237044243452
726.0,0.2296304768897405
727.0,0.22957354615160588
728.0,0.2294235566900308
729.0,0.22933572725369944
730.0,0.22938933207459605
731.0,0.22941126758430513
732.0,0.22925775395206557
733.0,0.22919039183878107
734.0,0.22911244467627345
735.0,0.2290260761733716
736.0,0.22899153731973773
737.0,0.22894573282291422
738.0,0.22887218457361577
739.0,0.22880433736358846
740.0,0.22883921681510985
741.0,0.228809335438588
742.0,0.22877769665144207
743.0,0.22880500522174885
744.0,0.2287491964963239
745.0,0.22871961730299567
746.0,0.2287678308388891
747.0,0.2288856124161963
748.0,0.22890793459697603
749.0,0.22888336342694893
750.0,0.22886047924182434
751.0,0.2288648424211399
752.0,0.22891312895271446
753.0,0.2290057087905381
754.0,0.22911435333537056
755.0,0.2291469023656628
756.0,0.22922991215712119
757.0,0.22957255177972402
758.0,0.23017789809869382
759.0,0.2296160731305368
760.0,0.22798921957113663
761.0,0.2269537860744574
762.0,0.23065434815832458
763.0,0.23076966194686147
764.0,0.2304589032578872
765.0,0.23098744545552147
766.0,0.23090300154551596
767.0,0.2307686569238256
768.0,0.23056430286043686
769.0,0.23029747369924092
770.0,0.23027925213812378
771.0,0.23024669566730926
772.0,0.2302348006612404
773.0,0.23036137105087295
774.0,0.2303426509127751
775.0,0.23032541076813334
776.0,0.2303907825436869
777.0,0.23051187273411353
778.0,0.23059469292743018
779.0,0.23064268857964915
780.0,0.2306959453703488
781.0,0.2308308114582223
782.0,0.230876993422113
783.0,0.23087546926446928
784.0,0.23092217496068035
785.0,0.23103783302378397
786.0,0.23119832191046572
787.0,0.2313343961151765
788.0,0.23138160248234393
789.0,0.23151158903824898
790.0,0.23163838380308627
791.0,0.23172480840873627
792.0,0.23181537557894855
793.0,0.2318267252644084
794.0,0.23182741400650153
795.0,0.2318809734851188
796.0,0.2319780279945115
797.0,0.23209895155943314
798.0,0.23217960133376075
799.0,0.23220234098512182
800.0,0.23236805721842482
801.0,0.23246841573475147
802.0,0.23252218270138414
803.0,0.23265303554972408
804.0,0.2326742234509078
805.0,0.23264367392140334
806.0,0.23264214001955524
807.0,0.2327349347969767
808.0,0.23276240825119035
809.0,0.23284535263758788
810.0,0.23306282984086557
811.0,0.2333298716555232
812.0,0.23349024764952117
813.0,0.23365154128947954
814.0,0.2338882479525254
815.0,0.23381528533523516
816.0,0.23379415066732528
817.0,0.23385988759956278
818.0,0.2338789639235924
819.0,0.2338397363071683
820.0,0.23413343156096994
821.0,0.23443689565991083
822.0,0.23401559137048158
823.0,0.233637583388122
824.0,0.23377488691685097
825.0,0.23423325106343018
826.0,0.2342133377271909
827.0,0.2341389041538137
828.0,0.23406513263666756
829.0,0.23403335183319252
830.0,0.23419328541431597
831.0,0.23425539241355584
832.0,0.23416842511687044
833.0,0.23401324606510693
834.0,0.2339991250460314
835.0,0.2341647157323815
836.0,0.23427355056284332
837.0,0.23408853003656704
838.0,0.2340836826927752
839.0,0.23413487099338723
840.0,0.23415932419075158
841.0,0.23413828763028968
842.0,0.23405841844330624
843.0,0.23401536568774814
844.0,0.23403232558320855
845.0,0.23403372070929784
846.0,0.234169334233228
847.0,0.23438177970930377
848.0,0.2345104311156658
849.0,0.23427392386201237
850.0,0.23409411847069406
851.0,0.2343447223360006
852.0,0.23493357007992835
853.0,0.2345397323600137
854.0,0.23383532766317622
855.0,0.23368290179985465
856.0,0.23446684658771016
857.0,0.23464151376447728
858.0,0.23456138861471076
859.0,0.23446283405598906
860.0,0.2344767550813911
861.0,0.23453734341425386
862.0,0.23464569932064794
863.0,0.23475030393500337
864.0,0.23472957888635365
865.0,0.23420599148601842
866.0,0.2337180050164989
867.0,0.23374473810711996
868.0,0.2343764105133513
869.0,0.2345574967356403
870.0,0.23455810177215547
871.0,0.23463442975161294
872.0,0.23465320394623843
873.0,0.2344877617530718
874.0,0.23438268918096775
875.0,0.2344779969241135
876.0,0.23449287287108983
877.0,0.23447343982626515
878.0,0.2345004430910811
879.0,0.23460293191753795
880.0,0.2346025266197603
881.0,0.234683175707908
882.0,0.23484346094937372
883.0,0.23500807119361222
884.0,0.23514660820155522
885.0,0.23509018095953926
886.0,0.23487777297725515
887.0,0.23468217430014948
888.0,0.23469193663225396
889.0,0.234891156318197
890.0,0.23513901247278984
891.0,0.23525569450482048
892.0,0.23527764688081848
893.0,0.2353445275787125
894.0,0.2354173629716376
895.0,0.23532563500041834
896.0,0.2352593888761979
897.0,0.23507836436510574
898.0,0.2347672486473147
899.0,0.23451382034826593
900.0,0.234579722499716
901.0,0.2349397455195442
902.0,0.23551341276888751
903.0,0.23622692464361397
904.0,0.2368777919261452
905.0,0.2369786355570918
906.0,0.23642744217555794
907.0,0.23568598495961907
908.0,0.2351082327053669
909.0,0.23502633227667474
910.0,0.2354321580833169
911.0,0.23583912348621952
912.0,0.23586607745517182
913.0,0.2358381200705973
914.0,0.2359018554202203
915.0,0.23560725808110058
916.0,0.23545957667761622
917.0,0.2355263668241796
918.0,0.23578307621204828
919.0,0.2362553592215461
920.0,0.236610316637201
921.0,0.2365240565526366
922.0,0.23602885962548797
923.0,0.23580200181981445
924.0,0.2359608413042043
925.0,0.23644625875048442
926.0,0.23705106033487314
927.0,0.23744419676237033
928.0,0.23722132357939701
929.0,0.23636985954215342
930.0,0.23496246791204725
931.0,0.23287267835527078
932.0,0.23036060883781884
933.0,0.22803848131958068
934.0,0.22658310782361724
935.0,0.2260289302524492
936.0,0.22689353570343246
937.0,0.22863125042931307
938.0,0.23074570469537023
939.0,0.23359007433752763
940.0,0.23482575147723322
941.0,0.23444784419671677
942.0,0.23318378811104962
943.0,0.23196737550769514
944.0,0.23078064765778364
945.0,0.2303312065431599
946.0,0.23081869410379058
947.0,0.23092382295103592
948.0,0.23216120073741728
949.0,0.23281431985996912
950.0,0.23201608450699718
951.0,0.23211651051332546
952.0,0.23272637193621182
953.0,0.23269050098192237
954.0,0.2318655501964303
955.0,0.232218085316988
956.0,0.23301188775809006
957.0,0.23323221347693207
958.0,0.23288031579430876
959.0,0.2335110146451208
960.0,0.23376263373005587
961.0,0.2339093782297668
962.0,0.2341392028971887
963.0,0.23410621661080194
964.0,0.23388625620095188
965.0,0.23426354403701075
966.0,0.23532960280277895
967.0,0.23625753904701258
968.0,0.23623129807497661
969.0,0.23643966624745638
970.0,0.23682430973154647
971.0,0.2360509309729532
972.0,0.235728534606814
973.0,0.23538162736925972
974.0,0.23473295276849537
975.0,0.23405871889121277
976.0,0.234461769796901
977.0,0.23469700709272254
978.0,0.23473345773575904
979.0,0.23534891035943314
980.0,0.23563355725684063
981.0,0.23581835215538968
982.0,0.2359236397327242
983.0,0.23589940350588526
984.0,0.23609900211370896
985.0,0.23574933390726782
986.0,0.2354282072737091
987.0,0.23570424566592704
988.0,0.23493566810961394
989.0,0.23534163666516392
990.0,0.23594877880101794
991.0,0.23567091392916828
992.0,0.23598895084151378
993.0,0.23587448041908207
994.0,0.23552924935652755
995.0,0.23540101498235969
996.0,0.23568075936034977
997.0,0.23504841271256707
998.0,0.23455809009992531
999.0,0.2349064154128812
1000.0,0.23554837671140397
1001.0,0.22629662746841323
1002.0,0.22621848101346742
1003.0,0.22641166305233326
1004.0,0.22686441027960078
1005.0,0.22695984190278146
1006.0,0.22693169783004993
1007.0,0.22694688525165105
1008.0,0.2267042845807705
1009.0,0.226778086296189
1010.0,0.22694681289579138
1011.0,0.22700576016049262
1012.0,0.22728894695813187
1013.0,0.22753740684813423
1014.0,0.22756597373008025
1015.0,0.2278526338620482
1016.0,0.22787539650972372
1017.0,0.22751367543486956
1018.0,0.22739771517074786
1019.0,0.227287545463451
1020.0,0.22727109231205966
1021.0,0.22731729391337493
1022.0,0.22754883734675413
1023.0,0.22758855386882998
1024.0,0.2276488508365435
1025.0,0.22770275038769328
1026.0,0.2276585619153985
1027.0,0.2278103674453376
1028.0,0.22806942851925285
1029.0,0.22820605146349893
1030.0,0.22832178436380743
1031.0,0.22848079520025688
1032.0,0.22860320924755095
1033.0,0.22872494262408952
1034.0,0.2289435617289585
1035.0,0.22911756580075035
1036.0,0.229277756546465
1037.0,0.22932377720124286
1038.0,0.22941616078988344
1039.0,0.22945262806589173
1040.0,0.2292706285502828
1041.0,0.22916575531348188
1042.0,0.22942818122147168
1043.0,0.22945630907527617
1044.0,0.22922810640074737
1045.0,0.22940517405798846
1046.0,0.229575930914761
1047.0,0.22962235862355754
1048.0,0.22965367660133057
1049.0,0.2299290366236933
1050.0,0.2300155244263778
1051.0,0.22988592431596871
1052.0,0.2298083328320455
1053.0,0.22969559171223236
1054.0,0.22965725415540164
1055.0,0.22964409464274238
1056.0,0.22944473371848217
1057.0,0.2290715068200287
1058.0,0.2286608353871765
1059.0,0.22835339096238658
1060.0,0.2282390367324645
1061.0,0.22849557945817175
1062.0,0.22899510119559344
1063.0,0.2291435413654433
1064.0,0.22906040797999927
1065.0,0.22893093998374517
1066.0,0.2289418127643955
1067.0,0.2286611302963368
1068.0,0.22859467900093652
1069.0,0.22862725208659068
1070.0,0.22844824286680704
1071.0,0.2284315762532334
1072.0,0.2283632871538646
1073.0,0.22803965303714488
1074.0,0.22773181199572168
1075.0,0.2276501750632207
1076.0,0.22776690846963135
1077.0,0.22783566460434107
1078.0,0.22778360667409633
1079.0,0.22776379412060924
1080.0,0.22759855854248195
1081.0,0.22739810793263035
1082.0,0.22741034526685863
1083.0,0.22760659913001868
1084.0,0.22774687482361036
1085.0,0.22756098556322166
1086.0,0.2273818772984628
1087.0,0.22729410857554377
1088.0,0.22712283505757805
1089.0,0.22712473402416575
1090.0,0.22724376500502294
1091.0,0.227435536309773
1092.0,0.22773250410594942
1093.0,0.2280278794237319
1094.0,0.22815512164027935
1095.0,0.22820548968557286
1096.0,0.22806380343028348
1097.0,0.22788485411790704
1098.0,0.22787053502842905
1099.0,0.227916375607495
1100.0,0.22801677417495267
1101.0,0.22819110960515027
1102.0,0.2281839825703614
1103.0,0.22840831732146993
1104.0,0.2287329462093473
1105.0,0.2290185807657903
1106.0,0.22944839209372817
1107.0,0.2297037151073495
1108.0,0.22980824064363717
1109.0,0.22990831995307073
1110.0,0.22996118146990305
1111.0,0.23003478301878408
1112.0,0.2300661717423424
1113.0,0.23025771723490615
1114.0,0.23027173158811942
1115.0,0.23028519337291461
1116.0,0.2306880715325836
1117.0,0.2310634147224951
1118.0,0.23158796955284452
1119.0,0.2324575877578289
1120.0,0.23322722806109406
1121.0,0.23350937732096058
1122.0,0.23394476356256366
