Wavelength (nm),Reflectance
350.0,0.13690110136350367
351.0,0.1374045227155524
352.0,0.13858281580936824
353.0,0.1397078889439111
354.0,0.14015379817382798
355.0,0.14046360234880637
356.0,0.14092540445071888
357.0,0.1415165177300633
358.0,0.14296593432301155
359.0,0.1444085973346964
360.0,0.14527540329418168
361.0,0.14583629828864011
362.0,0.14639983726713765
363.0,0.1472913938088294
364.0,0.14848511892201266
365.0,0.14912682519807371
366.0,0.14992296839062624
367.0,0.15074228245512836
368.0,0.1513820143131151
369.0,0.15274857896777133
370.0,0.15414617424750857
371.0,0.15536926781769797
372.0,0.15660490185967527
373.0,0.15791513534727544
374.0,0.15915390403447321
375.0,0.16026864955432846
376.0,0.16136094742735552
377.0,0.16256824415174137
378.0,0.16393003438788045
379.0,0.16539173903323295
380.0,0.16677063184984964
381.0,0.1681864958757055
382.0,0.1697443409409842
383.0,0.1714515558227837
384.0,0.17307522652585108
385.0,0.17424571373239156
386.0,0.175344963263882
387.0,0.17691536135298455
388.0,0.178090075779569
389.0,0.17908870581718403
390.0,0.18027356318644108
391.0,0.1819548568032531
392.0,0.1831166942352219
393.0,0.18423357971440663
394.0,0.18566619886885186
395.0,0.1872128171739724
396.0,0.18835064901571733
397.0,0.18948333064593975
398.0,0.19081066999715454
399.0,0.19140826427231028
400.0,0.19205499084664748
401.0,0.19291000567417
402.0,0.19386325704745264
403.0,0.1948229939101306
404.0,0.19594522882704005
405.0,0.19715925634356946
406.0,0.19821679158228336
407.0,0.19938123665751986
408.0,0.2006166031631689
409.0,0.2018193189023947
410.0,0.20284568941431572
411.0,0.2040844357685681
412.0,0.20533051022835852
413.0,0.2063572051273002
414.0,0.20741048639630466
415.0,0.20844418510905927
416.0,0.2095766536579612
417.0,0.2109440184062951
418.0,0.21222376471871737
419.0,0.21349247963029816
420.0,0.21475687999380957
421.0,0.21591851709324666
422.0,0.21716306644236122
423.0,0.2184481819594878
424.0,0.21972094913868656
425.0,0.22099485326848375
426.0,0.2223715062590229
427.0,0.2238424180539041
428.0,0.22534732576956223
429.0,0.226829354845398
430.0,0.2283889760198613
431.0,0.22999767717020445
432.0,0.23152677184335796
433.0,0.23290188615107282
434.0,0.2341821693377684
435.0,0.23548740456107062
436.0,0.23698951751603597
437.0,0.2384733912019656
438.0,0.23993368821558056
439.0,0.24141232087446393
440.0,0.24293242361765777
441.0,0.2443898373229838
442.0,0.24582404866585536
443.0,0.2473295155626597
444.0,0.2487829379959737
445.0,0.2502447365842226
446.0,0.2517169983583778
447.0,0.25311541216703526
448.0,0.25453539095275446
449.0,0.25587251761916124
450.0,0.2570819760527576
451.0,0.258375533390053
452.0,0.2596535001322376
453.0,0.260860747956425
454.0,0.26197623578058066
455.0,0.2630650687123077
456.0,0.26415153901833777
457.0,0.2652037183841901
458.0,0.26614821314790793
459.0,0.26708846937317343
460.0,0.26797334111677534
461.0,0.2688041935190282
462.0,0.2697509661170005
463.0,0.27064427336908875
464.0,0.27147819768117815
465.0,0.27231496567389885
466.0,0.27323879894851744
467.0,0.2741077625403267
468.0,0.2749226304096817
469.0,0.27579957606744
470.0,0.2766545205386148
471.0,0.27744073563075267
472.0,0.27819552546913706
473.0,0.2790950757245318
474.0,0.27994289131612526
475.0,0.2807788755871578
476.0,0.2816783556815383
477.0,0.28253191701833114
478.0,0.2834508357341235
479.0,0.2844302273737585
480.0,0.2853897891874912
481.0,0.2864100711951182
482.0,0.28741485426122737
483.0,0.28841340413637184
484.0,0.2895764209056941
485.0,0.2907853543484068
486.0,0.2920237032280555
487.0,0.2932798051363201
488.0,0.29446756926873496
489.0,0.2956043718345366
490.0,0.2967885678599735
491.0,0.2981417555046842
492.0,0.29944230264436356
493.0,0.30073961914165637
494.0,0.3020659902630536
495.0,0.30337946145376465
496.0,0.3048081854136834
497.0,0.3062461153112691
498.0,0.3076238084287723
499.0,0.30921586499941783
500.0,0.31086731066643114
501.0,0.31249938775089625
502.0,0.31409883499530306
503.0,0.3157465910211269
504.0,0.3174065804187591
505.0,0.31904327186129133
506.0,0.32064399750751593
507.0,0.3222897680753939
508.0,0.3240691406549335
509.0,0.3259927220211367
510.0,0.32780781944281134
511.0,0.3295849216430383
512.0,0.3313870240589366
513.0,0.3332612754799358
514.0,0.33509118169583885
515.0,0.3369731135251862
516.0,0.33895880024484254
517.0,0.34096482269102174
518.0,0.34299813604479706
519.0,0.34495243252636093
520.0,0.3467482323551375
521.0,0.34854734370379054
522.0,0.35043007184027675
523.0,0.35232936900801226
524.0,0.354101424061064
525.0,0.3560445696046197
526.0,0.35804805144672364
527.0,0.36001632918894294
528.0,0.36200528106829016
529.0,0.36391575519240654
530.0,0.36576432150232846
531.0,0.3676474532519083
532.0,0.36966402147955324
533.0,0.37174289294544843
534.0,0.3738134624976951
535.0,0.37583576174452193
536.0,0.3778489237633381
537.0,0.3798970442993014
538.0,0.38202376106503944
539.0,0.3842125092587543
540.0,0.3864212626346525
541.0,0.3886363260746297
542.0,0.39085349119169366
543.0,0.3929997959215591
544.0,0.3951847055878308
545.0,0.3974411022006669
546.0,0.39970385712114265
547.0,0.40200584812956003
548.0,0.4043700639532227
549.0,0.40677170224153614
550.0,0.409077557645042
551.0,0.41146397743481244
552.0,0.41394676427272514
553.0,0.4164569081281419
554.0,0.41891405776793383
555.0,0.4213719032146781
556.0,0.42385152740037235
557.0,0.4263272082896797
558.0,0.428882294900431
559.0,0.4314613645574766
560.0,0.4339835551342212
561.0,0.43642387686941203
562.0,0.438926418540296
563.0,0.4414450531915368
564.0,0.443856532991573
565.0,0.44622527942105766
566.0,0.44862216302595964
567.0,0.4510197904230047
568.0,0.45327060702726024
569.0,0.4553689113324917
570.0,0.45742496635198465
571.0,0.45951641219272005
572.0,0.4615732621767235
573.0,0.46351287715135814
574.0,0.46542220164316184
575.0,0.4674670511645097
576.0,0.4695018881280523
577.0,0.47158023457965137
578.0,0.4737111432498023
579.0,0.4758113505248686
580.0,0.47794885818131944
581.0,0.4800777604058864
582.0,0.4821546450929515
583.0,0.4842538169260149
584.0,0.4862682139633568
585.0,0.4881943873345945
586.0,0.49007756991574075
587.0,0.49169135965297023
588.0,0.49321678663331553
589.0,0.49476208438292546
590.0,0.49610991461180215
591.0,0.4976996785603336
592.0,0.4993307140000176
593.0,0.5007470736670816
594.0,0.5021821746637803
595.0,0.5036652894879631
596.0,0.5051827339315801
597.0,0.5066985308102026
598.0,0.5081232006822
599.0,0.5095240519763019
600.0,0.510954924517319
601.0,0.5124052580456814
602.0,0.5136530976552496
603.0,0.5147946848811916
604.0,0.5160163890054704
605.0,0.517194678834151
606.0,0.5182602992929383
607.0,0.5192369813351912
608.0,0.5202389092440508
609.0,0.521186992405147
610.0,0.5221033323407991
611.0,0.5229911297059678
612.0,0.5237441985808551
613.0,0.5245787260348765
614.0,0.5254264333997651
615.0,0.5261134474857739
616.0,0.526810192150706
617.0,0.5275050155852236
618.0,0.5281922886642402
619.0,0.5289110250025739
620.0,0.5295329947791485
621.0,0.5301539377467639
622.0,0.5308521644135868
623.0,0.5314752952223353
624.0,0.5321454349971165
625.0,0.5327784045338483
626.0,0.5332060252637317
627.0,0.5336491923654668
628.0,0.5341520838246047
629.0,0.5347809254839864
630.0,0.5356642298866666
631.0,0.5365960277204135
632.0,0.5374915509362261
633.0,0.5383115587946059
634.0,0.5390546981767116
635.0,0.53967475828874
636.0,0.5402105884926215
637.0,0.5407434886558911
638.0,0.5411760540873557
639.0,0.5414821349628816
640.0,0.5416782772918957
641.0,0.5418358229507061
642.0,0.5418143218308021
643.0,0.5417172769545827
644.0,0.5416370183753834
645.0,0.5412617635198743
646.0,0.540821195162583
647.0,0.5403805164513629
648.0,0.5399052501419223
649.0,0.5400616070307489
650.0,0.5403928008503206
651.0,0.5405693844735021
652.0,0.5409030670889438
653.0,0.5413223606908737
654.0,0.541761953167749
655.0,0.542170970375831
656.0,0.5425659724703294
657.0,0.5427409055119934
658.0,0.5426750813197104
659.0,0.5425428152129611
660.0,0.5422292854556039
661.0,0.5417510173207872
662.0,0.5411558897425035
663.0,0.5404989410509756
664.0,0.5397493821049953
665.0,0.5389591871562124
666.0,0.5382022991996046
667.0,0.5375127298194284
668.0,0.5369015291516359
669.0,0.5363594360293323
670.0,0.5358589480218698
671.0,0.5355636693042497
672.0,0.5353129244098259
673.0,0.5350511159846457
674.0,0.5351313197389952
675.0,0.5352336307998556
676.0,0.5353593522280236
677.0,0.5356022324755443
678.0,0.5357951375486469
679.0,0.5360567676945693
680.0,0.5364821549493638
681.0,0.5371248653855888
682.0,0.5381772468605578
683.0,0.5396237427803793
684.0,0.5412967097084849
685.0,0.5428808473110351
686.0,0.5438498881105747
687.0,0.5448383050182173
688.0,0.5469920124389506
689.0,0.5505881894236774
690.0,0.5544341747183513
691.0,0.5580104008584896
692.0,0.5611428684890631
693.0,0.5637360867364175
694.0,0.566064289002491
695.0,0.5684108242438799
696.0,0.5711617340223348
697.0,0.5734288000223559
698.0,0.5750450619531252
699.0,0.5761882230242739
700.0,0.5773136560445667
701.0,0.578327789858598
702.0,0.5793060274299868
703.0,0.580498936899828
704.0,0.581455378328818
705.0,0.5822518370401012
706.0,0.5830097638169451
707.0,0.5837046174335262
708.0,0.5841995861430832
709.0,0.5846264211033941
710.0,0.5851565066780471
711.0,0.5855752872306048
712.0,0.5858596993605707
713.0,0.5860292143523556
714.0,0.586115113521788
715.0,0.5858440655542745
716.0,0.5848833022875086
717.0,0.5832432665628696
718.0,0.5819343773715675
719.0,0.581440766333561
720.0,0.5822522241880496
721.0,0.5840311636926064
722.0,0.584919241240762
723.0,0.5847012872221887
724.0,0.5838316839109082
725.0,0.5834144002792601
726.0,0.5835690441413567
727.0,0.5839484861175681
728.0,0.5842476666482156
729.0,0.5843780238784609
730.0,0.584558078890371
731.0,0.5850233593531086
732.0,0.5858379511152262
733.0,0.5865680204231405
734.0,0.5871209371454006
735.0,0.5874712347213631
736.0,0.5876330249777402
737.0,0.5877785199512195
738.0,0.5879292658219171
739.0,0.5881256314279883
740.0,0.5884586697297753
741.0,0.5887506108419254
742.0,0.5889761414887533
743.0,0.5891152226805996
744.0,0.5889945145568832
745.0,0.5891186479040844
746.0,0.5893943415555329
747.0,0.5894669499284588
748.0,0.5895448399904978
749.0,0.589640114030416
750.0,0.5897527210740323
751.0,0.5898785097298375
752.0,0.5898742109327946
753.0,0.5898454099780084
754.0,0.5898925246364332
755.0,0.5899866611790533
756.0,0.5901106631976056
757.0,0.5901110376711897
758.0,0.5896338149207053
759.0,0.5870454867888064
760.0,0.5810703120397828
761.0,0.572187438996918
762.0,0.572833017321315
763.0,0.5738482023971494
764.0,0.5764745875964093
765.0,0.5807372167821366
766.0,0.5847905473932621
767.0,0.5873348504293525
768.0,0.5886521976684023
769.0,0.5891581833950693
770.0,0.589483358092003
771.0,0.5896824817461699
772.0,0.5897632693851693
773.0,0.5897263548875072
774.0,0.5897221163778608
775.0,0.5896078268339188
776.0,0.5894171401575237
777.0,0.589363965808598
778.0,0.5893018304500945
779.0,0.5891799723499288
780.0,0.5890260821614396
781.0,0.5889891543769419
782.0,0.5888871570075288
783.0,0.5887302449111613
784.0,0.5885951678988751
785.0,0.5885848844472228
786.0,0.588375257385956
787.0,0.5879931618793649
788.0,0.5876680829315915
789.0,0.5873600186896811
790.0,0.5870739777867425
791.0,0.5868525281624
792.0,0.5867685010503465
793.0,0.5867741107738754
794.0,0.5866363014663013
795.0,0.5862777143526625
796.0,0.5859909222456212
797.0,0.585763005019557
798.0,0.5856033988356169
799.0,0.5854778894806505
800.0,0.5852164557917177
801.0,0.5850077335610762
802.0,0.5848198770681303
803.0,0.5845197548916379
804.0,0.584269254913792
805.0,0.5841607525827248
806.0,0.5840997600474368
807.0,0.58383747099601
808.0,0.5836681710522222
809.0,0.5833737912170517
810.0,0.5828268518055151
811.0,0.5822236914999942
812.0,0.5815422312245973
813.0,0.5806193623328051
814.0,0.5794259469983516
815.0,0.5785758286760423
816.0,0.577914334707371
817.0,0.5775826985922657
818.0,0.5777660745228717
819.0,0.5783090590467157
820.0,0.5786409837018074
821.0,0.5784606996401378
822.0,0.5777384415645633
823.0,0.5771505978357162
824.0,0.5772169392052053
825.0,0.5776948291417275
826.0,0.5776304165744132
827.0,0.5772013437903418
828.0,0.5767259209599758
829.0,0.5764755644281219
830.0,0.5764284364632615
831.0,0.5763684260001682
832.0,0.5762863736170395
833.0,0.5762578191629656
834.0,0.5763982102186833
835.0,0.5763465207926536
836.0,0.5762071071530319
837.0,0.5762206384389427
838.0,0.5760414985153623
839.0,0.5758202455980783
840.0,0.5756469109482452
841.0,0.5755276130858735
842.0,0.5753991534213279
843.0,0.5752950611179479
844.0,0.5751201726659554
845.0,0.5746466329164374
846.0,0.5744032793782103
847.0,0.5743092725749243
848.0,0.5742137510979696
849.0,0.5740830838070772
850.0,0.5738257118919176
851.0,0.5735472790520147
852.0,0.5733796136741085
853.0,0.573386974436758
854.0,0.5731995080010374
855.0,0.5728715674369034
856.0,0.5726103042492796
857.0,0.5723450374458051
858.0,0.572308744798348
859.0,0.5722930262510669
860.0,0.5719717373712918
861.0,0.5718884486736802
862.0,0.5716452201258865
863.0,0.5712851688968018
864.0,0.5712103763728505
865.0,0.5711625440463574
866.0,0.5709300978777254
867.0,0.5705846734118187
868.0,0.5704890800945908
869.0,0.5703300744155336
870.0,0.5702074550007947
871.0,0.5701122678807851
872.0,0.56978600332725
873.0,0.5696741134778868
874.0,0.5695927576584905
875.0,0.5694165736921879
876.0,0.5694868844557219
877.0,0.5694025221356144
878.0,0.5692204994973917
879.0,0.5691116940658493
880.0,0.569143489700753
881.0,0.569298292921225
882.0,0.5693215777948066
883.0,0.569040268090768
884.0,0.5688830672871784
885.0,0.5690338190754972
886.0,0.5692401182508938
887.0,0.5691262724912586
888.0,0.5688744068082183
889.0,0.5689184333455326
890.0,0.5690435222492612
891.0,0.5687643207033493
892.0,0.5687618431693456
893.0,0.5683173682518775
894.0,0.5674101607051371
895.0,0.5667026823463512
896.0,0.5664681558148751
897.0,0.5658972160017555
898.0,0.565106715861752
899.0,0.5652042535570105
900.0,0.5649501977632126
901.0,0.565293730259882
902.0,0.5662576924166499
903.0,0.5666633283445711
904.0,0.5668233822052555
905.0,0.5667403245774899
906.0,0.5664968458364845
907.0,0.566317730898459
908.0,0.5661745816605136
909.0,0.5659157385144923
910.0,0.5655158317584544
911.0,0.5651904645492051
912.0,0.5651576250913846
913.0,0.5651623714597112
914.0,0.5650816366830221
915.0,0.5652090741428234
916.0,0.5658993380610224
917.0,0.5664122624969743
918.0,0.5665524008698135
919.0,0.5675462490256011
920.0,0.5675152759826976
921.0,0.567701368219491
922.0,0.5688646435224942
923.0,0.5692790053865961
924.0,0.5682843848623649
925.0,0.5677169513412156
926.0,0.5684034711306548
927.0,0.566943483106261
928.0,0.5655237112009065
929.0,0.5642770419082873
930.0,0.5626744349735203
931.0,0.5601657644398147
932.0,0.5576987287917916
933.0,0.5555470382509559
934.0,0.5538877507507076
935.0,0.5534101634132848
936.0,0.554071872333513
937.0,0.5559264843636927
938.0,0.5581698449232503
939.0,0.5584045897408412
940.0,0.558989608005334
941.0,0.5596277332105282
942.0,0.5599137023179799
943.0,0.560734913938043
944.0,0.5602151796150482
945.0,0.5594705791808717
946.0,0.5597389785627317
947.0,0.5601564948829838
948.0,0.5603829174465843
949.0,0.5607452725427049
950.0,0.5617366987821878
951.0,0.5637675264904256
952.0,0.5634122575866211
953.0,0.5632355625535446
954.0,0.5645377378294925
955.0,0.5636302803198895
956.0,0.564866647798027
957.0,0.566541766202995
958.0,0.5668065560872136
959.0,0.5660452670268628
960.0,0.567906201025571
961.0,0.5691578909273665
962.0,0.56881430731325
963.0,0.5705854306722401
964.0,0.5718377313723824
965.0,0.5724268253587289
966.0,0.5731891277389916
967.0,0.5752493098572241
968.0,0.5761646529307641
969.0,0.5767527630786223
970.0,0.577583576581483
971.0,0.578337278538332
972.0,0.5775038332190642
973.0,0.5778102520685964
974.0,0.5794371958391327
975.0,0.5799462680755555
976.0,0.5795728937873769
977.0,0.5801722355513053
978.0,0.5811835004775626
979.0,0.5809005402952272
980.0,0.5821035992752399
981.0,0.5829301299193043
982.0,0.5825877374468625
983.0,0.5817342407644898
984.0,0.5833938761400679
985.0,0.5843348855917786
986.0,0.5844661582380923
987.0,0.5849760889219948
988.0,0.5861067854175483
989.0,0.5850598563832607
990.0,0.5843095346745188
991.0,0.5859278793108591
992.0,0.5864462842852092
993.0,0.5851234786854739
994.0,0.5850130235896696
995.0,0.5871129618465595
996.0,0.5871022372819339
997.0,0.5864459447195665
998.0,0.5866611267011022
999.0,0.5876844240359684
1000.0,0.5876302752374029
1001.0,0.5920618618796062
1002.0,0.5920063171663366
1003.0,0.591769283332883
1004.0,0.5913274341897572
1005.0,0.5912593910292939
1006.0,0.5912048019878072
1007.0,0.591322678030132
1008.0,0.591901926122177
1009.0,0.5921837679635523
1010.0,0.5924860052873027
1011.0,0.5928083813716694
1012.0,0.5928541876793764
1013.0,0.5932604158655632
1014.0,0.5931819368980819
1015.0,0.5925749546338516
1016.0,0.59258404700737
1017.0,0.5931562692381216
1018.0,0.5928925320263313
1019.0,0.5922191133553252
1020.0,0.5922569815301255
1021.0,0.5922678649013297
1022.0,0.5918394534034066
1023.0,0.5927564309347225
1024.0,0.5935378249582669
1025.0,0.5932902806129013
1026.0,0.5934294747170727
1027.0,0.5935730537840218
1028.0,0.593645598721383
1029.0,0.5938890246353945
1030.0,0.5937983549009813
1031.0,0.5937667365802519
1032.0,0.5935954177690331
1033.0,0.5935032088451084
1034.0,0.5934369685578935
1035.0,0.5935358906291232
1036.0,0.5937523139598517
1037.0,0.5934661443066812
1038.0,0.5941823510882634
1039.0,0.594850115972701
1040.0,0.5948862424536947
1041.0,0.5951665998712238
1042.0,0.5949258591060083
1043.0,0.5943121340440249
1044.0,0.5940798774425343
1045.0,0.5939810483424478
1046.0,0.5938990276657663
1047.0,0.5941072862892245
1048.0,0.593758457354985
1049.0,0.5929565436568885
1050.0,0.5926071553264018
1051.0,0.5919423798727804
1052.0,0.5917005761140858
1053.0,0.5927175689043152
1054.0,0.5937738352225678
1055.0,0.5944186445359437
1056.0,0.5944203548352267
1057.0,0.5935691228693222
1058.0,0.592907961176205
1059.0,0.5931525783986962
1060.0,0.5936384015787409
1061.0,0.5937850950023482
1062.0,0.5937775858370252
1063.0,0.5936639420373347
1064.0,0.5930038586167784
1065.0,0.5926242418925893
1066.0,0.5927959847651291
1067.0,0.5930609537488436
1068.0,0.593260090634116
1069.0,0.5931268338039505
1070.0,0.5929234665045564
1071.0,0.5930744282463872
1072.0,0.5930535714084186
1073.0,0.5931241758052027
1074.0,0.5934660363887314
1075.0,0.5930295324857606
1076.0,0.5928191680725926
1077.0,0.5931006638570623
1078.0,0.5931819303890992
1079.0,0.5931442801761517
1080.0,0.5934726858990554
1081.0,0.5937931613003459
1082.0,0.5936815991420957
1083.0,0.593583911661561
1084.0,0.5934365869586772
1085.0,0.593151812515723
1086.0,0.5930793014471387
1087.0,0.5930546647794633
1088.0,0.59301027487149
1089.0,0.5928990586398764
1090.0,0.5926989871807584
1091.0,0.592412896212429
1092.0,0.5922336041067431
1093.0,0.5926438214595575
1094.0,0.5927322597155353
1095.0,0.5928181145231078
1096.0,0.5926367003465907
1097.0,0.5923309865705055
1098.0,0.5916615095046165
1099.0,0.5910751846386739
1100.0,0.5904201848186801
1101.0,0.5899452308459322
1102.0,0.5895550325042701
1103.0,0.5890879714824552
1104.0,0.5889865441855022
1105.0,0.5889885836333465
1106.0,0.5889067257080094
1107.0,0.5886862447209591
1108.0,0.5881367298161408
1109.0,0.5878273370401967
1110.0,0.587754411653665
1111.0,0.587183185910299
1112.0,0.586363178746609
1113.0,0.5854949386967654
1114.0,0.5838278039782969
1115.0,0.5819152051577623
1116.0,0.5806581222172693
1117.0,0.5791124992472025
1118.0,0.5779414425262511
1119.0,0.5760453088030195
1120.0,0.5727036534496173
1121.0,0.570447680114209
1122.0,0.5682605749637085
1123.0,0.565666844140045
1124.0,0.5645083086171144
1125.0,0.5639905566129961
1126.0,0.5640689588023953
1127.0,0.5654142193176428
1128.0,0.5666426302526398
1129.0,0.5685929256377366
1130.0,0.5693564375808028
1131.0,0.5705891623111555
1132.0,0.5718519032952566
1133.0,0.5727916372479871
1134.0,0.5741958899709072
1135.0,0.5756106016084599
1136.0,0.5769644441524288
1137.0,0.5778539357444766
1138.0,0.5785807639874375
1139.0,0.5789702900879975
1140.0,0.5792741933124448
