Wavelength (nm),Reflectance
350.0,0.07133160431371507
351.0,0.07125702288565952
352.0,0.07144414902989246
353.0,0.07174229855985305
354.0,0.0720594757620873
355.0,0.07248004761590461
356.0,0.07302638947003354
357.0,0.07361616996850698
358.0,0.07368863023270682
359.0,0.07368002023136652
360.0,0.07381563382589777
361.0,0.073771172573244
362.0,0.07399702190620772
363.0,0.07435438858672584
364.0,0.07469108336357813
365.0,0.07518032242636441
366.0,0.07565442769831236
367.0,0.07598000975316566
368.0,0.0761137549491683
369.0,0.07629414167631028
370.0,0.07672683929667926
371.0,0.0772704649468979
372.0,0.07759765918136599
373.0,0.07788372382220182
374.0,0.07836808864805367
375.0,0.07893389666134824
376.0,0.07910047976798214
377.0,0.07952789944680627
378.0,0.08009695245531379
379.0,0.08059110458463555
380.0,0.08088886084072024
381.0,0.08144769709493288
382.0,0.08215885342843657
383.0,0.08278278140826525
384.0,0.08336897265653957
385.0,0.08392585098483205
386.0,0.08435517173234756
387.0,0.08462242946008464
388.0,0.085390493652963
389.0,0.08600394883985583
390.0,0.08628203293117735
391.0,0.08656222013383394
392.0,0.08711299015505422
393.0,0.08756274234764266
394.0,0.08785704510494241
395.0,0.08858877783924327
396.0,0.08913404214282404
397.0,0.08953647439878892
398.0,0.08994176890336142
399.0,0.09030802941717762
400.0,0.09071123857876466
401.0,0.09105526204088281
402.0,0.0912446783034773
403.0,0.091524353841129
404.0,0.09190872715345816
405.0,0.092333191145767
406.0,0.09269656637879085
407.0,0.09321023055322324
408.0,0.09373296689709604
409.0,0.09416150836060865
410.0,0.09454922085446897
411.0,0.09489870739585482
412.0,0.0952779603618143
413.0,0.09572078369516995
414.0,0.09609589654028046
415.0,0.09652279983235139
416.0,0.09694799198890393
417.0,0.09726976811973713
418.0,0.097724212349237
419.0,0.09822606728415455
420.0,0.09869455698962652
421.0,0.09909458249178431
422.0,0.0995581462336244
423.0,0.10004162008757415
424.0,0.10050243826413918
425.0,0.1009698841229296
426.0,0.101506491772813
427.0,0.10206257765788915
428.0,0.10258229998590933
429.0,0.10321380313692755
430.0,0.10378976229425897
431.0,0.10430343242159909
432.0,0.10486397684470151
433.0,0.10535103903748194
434.0,0.10585953047439718
435.0,0.10642830632072867
436.0,0.10698217096397634
437.0,0.10751746153781104
438.0,0.10803251252037122
439.0,0.10853024377559588
440.0,0.1090205969890257
441.0,0.10952454012416689
442.0,0.11002608638249575
443.0,0.11049704777246479
444.0,0.11097535379570893
445.0,0.11138445305523034
446.0,0.11175207912332896
447.0,0.11222468942469853
448.0,0.11265596646681685
449.0,0.11307048566487031
450.0,0.11348760393965307
451.0,0.11382462338434299
452.0,0.11412987956997492
453.0,0.11444716943269741
454.0,0.11480245768079649
455.0,0.11512186176129108
456.0,0.1154623432279446
457.0,0.11580479013878427
458.0,0.1160605884552426
459.0,0.11632961573111103
460.0,0.1166068130630534
461.0,0.11688667854630397
462.0,0.11720313108512352
463.0,0.11752340229768363
464.0,0.1178111868415167
465.0,0.11805635456269027
466.0,0.11836796538546905
467.0,0.11867134663044832
468.0,0.11895821662493447
469.0,0.11927245678426265
470.0,0.11952067431392344
471.0,0.11975501582328203
472.0,0.12003229884982432
473.0,0.12037948458403944
474.0,0.12070828585740931
475.0,0.12100216085236715
476.0,0.1212841512421923
477.0,0.12162846423450532
478.0,0.1219343202818727
479.0,0.12222061616747534
480.0,0.12257783632328699
481.0,0.12289906813483427
482.0,0.12319809866374486
483.0,0.12352270814850529
484.0,0.12395026064720796
485.0,0.12432775187226014
486.0,0.12474264033943444
487.0,0.12527126915765416
488.0,0.12565768541559727
489.0,0.12600465649707968
490.0,0.12638029545738738
491.0,0.12681416495764972
492.0,0.12723467924238333
493.0,0.12760330117992705
494.0,0.12795897924805053
495.0,0.12844805574248183
496.0,0.12893958622989937
497.0,0.12939090819812107
498.0,0.12980875492955699
499.0,0.1302708000483715
500.0,0.13073086284191923
501.0,0.13118477785448293
502.0,0.13165662431478917
503.0,0.13214848444095928
504.0,0.13265135868755185
505.0,0.13314393795477364
506.0,0.13359164229170795
507.0,0.13403951121559246
508.0,0.1344935123893289
509.0,0.13495459030574536
510.0,0.13544496546387585
511.0,0.1359252352910594
512.0,0.13639411412242247
513.0,0.13687365794792883
514.0,0.13733910919629286
515.0,0.13783006082618188
516.0,0.13836189687947764
517.0,0.13889328520905417
518.0,0.13942901642902295
519.0,0.1399477735090414
520.0,0.14042852833505354
521.0,0.1408811868221199
522.0,0.1413679382749551
523.0,0.14188198819370879
524.0,0.14237095199872263
525.0,0.1428493473913982
526.0,0.14334812450597925
527.0,0.14387706733857644
528.0,0.14441259693473774
529.0,0.14492754922745393
530.0,0.14543510061333706
531.0,0.14596605474428678
532.0,0.1465259807303619
533.0,0.14705587265283887
534.0,0.14756590431785682
535.0,0.14812071826555548
536.0,0.1486754600346053
537.0,0.14922687405674523
538.0,0.14978140186475658
539.0,0.1503334278080493
540.0,0.15089280146715858
541.0,0.15146632416848133
542.0,0.15205029159256958
543.0,0.1525887157990012
544.0,0.15312982267554134
545.0,0.15367847188755615
546.0,0.1541972853525755
547.0,0.15478267030377202
548.0,0.15537845914591492
549.0,0.15593265742132176
550.0,0.15646341391426458
551.0,0.15701788913073192
552.0,0.1576015901753722
553.0,0.15819394845194057
554.0,0.15875460731940114
555.0,0.15933673244982471
556.0,0.15994441314969332
557.0,0.16052341017469934
558.0,0.16109811073669567
559.0,0.16165460308737656
560.0,0.16218530275669343
561.0,0.16273227424066558
562.0,0.1632432423499626
563.0,0.1637474593959338
564.0,0.1643025435387732
565.0,0.1648724479810765
566.0,0.16540892256615175
567.0,0.16589750038098383
568.0,0.16636993369200204
569.0,0.16687524818602167
570.0,0.1673739227377968
571.0,0.1678141087133248
572.0,0.16818769442083928
573.0,0.16864468281616635
574.0,0.1691598512064453
575.0,0.16961886742504223
576.0,0.17011311007585503
577.0,0.17060385371351275
578.0,0.17107487290159742
579.0,0.1715691258810437
580.0,0.17203311271218494
581.0,0.1724860469965777
582.0,0.1729439644158281
583.0,0.17331898248326164
584.0,0.1737077693264846
585.0,0.1741363885776888
586.0,0.17457413580308517
587.0,0.17501343700465244
588.0,0.175438056400713
589.0,0.17584046473951098
590.0,0.1762172129304491
591.0,0.1765778613177813
592.0,0.17693447538163484
593.0,0.17730476134310036
594.0,0.17767022158108378
595.0,0.17803106050590342
596.0,0.17837218232024643
597.0,0.17867400633316244
598.0,0.17899653196105
599.0,0.17933345435162473
600.0,0.17966780079849584
601.0,0.17998699085236952
602.0,0.18032333244445367
603.0,0.18065668207677107
604.0,0.18096301688079677
605.0,0.18131403350598588
606.0,0.18166027546906474
607.0,0.18197186388979963
608.0,0.18224922980053163
609.0,0.18254643620501082
610.0,0.18287954560572828
611.0,0.18322875210630313
612.0,0.18351208394077848
613.0,0.18376351368905874
614.0,0.18404025625069695
615.0,0.1843910978760524
616.0,0.18472023200465154
617.0,0.1850199439674741
618.0,0.18529921195157162
619.0,0.1855841320245331
620.0,0.185845071165435
621.0,0.1861243115498405
622.0,0.18644513954139408
623.0,0.18671787602750575
624.0,0.18701161214232548
625.0,0.18733076021543715
626.0,0.18763879343124468
627.0,0.18790641953449738
628.0,0.18820020018176928
629.0,0.18853801847770646
630.0,0.18884751969397426
631.0,0.18912768003286745
632.0,0.18940390555126288
633.0,0.18969150583493075
634.0,0.1899313640602523
635.0,0.1902108819203137
636.0,0.1905151965747334
637.0,0.19076609974002107
638.0,0.19103311432297926
639.0,0.19134315798806323
640.0,0.19168133974959195
641.0,0.19196053062858043
642.0,0.1922291000872123
643.0,0.19248501236550936
644.0,0.19272943051658095
645.0,0.19302070611978098
646.0,0.19336142613442148
647.0,0.19369766486575152
648.0,0.19394239702548366
649.0,0.19419481083912962
650.0,0.19444848874747397
651.0,0.19469828071713152
652.0,0.19498414313493143
653.0,0.19530545789722686
654.0,0.19560001302175042
655.0,0.19582597387214143
656.0,0.19613182052292
657.0,0.19643727951683387
658.0,0.1967093471822228
659.0,0.19701631855108573
660.0,0.1972363367964592
661.0,0.19747797470322068
662.0,0.19780162331642742
663.0,0.19811100519606922
664.0,0.1983665986837534
665.0,0.19860314721083175
666.0,0.19887903882451494
667.0,0.1991649439147372
668.0,0.19946915799291784
669.0,0.19977722874846843
670.0,0.2000566931059325
671.0,0.20030208564616578
672.0,0.20056383856847979
673.0,0.20086729402557796
674.0,0.20116360197105843
675.0,0.20143881675952033
676.0,0.2016950638311858
677.0,0.20194847576700867
678.0,0.20224508338755987
679.0,0.20252956399451857
680.0,0.20279909876911775
681.0,0.20310800016608413
682.0,0.20340988975965085
683.0,0.20368509416519073
684.0,0.2039403495124269
685.0,0.20425092041456228
686.0,0.20447315033646743
687.0,0.20469375288577632
688.0,0.2050570975764215
689.0,0.20543777182707684
690.0,0.2057421381270363
691.0,0.20602266787417423
692.0,0.20639899248850466
693.0,0.2067814388147037
694.0,0.20709129909218463
695.0,0.20731166572476226
696.0,0.20758709796682825
697.0,0.20787765241116904
698.0,0.20819475535051046
699.0,0.20854687367055663
700.0,0.20884008958228764
701.0,0.20908425565564306
702.0,0.2093313782531261
703.0,0.20965613641536632
704.0,0.20992744659977317
705.0,0.21020357480183427
706.0,0.21053618395839593
707.0,0.21087897684713816
708.0,0.2111866379963622
709.0,0.211469650667463
710.0,0.21176026991276206
711.0,0.21206800736404538
712.0,0.21237428397960015
713.0,0.2126732664250743
714.0,0.2129731281740704
715.0,0.2132909326912467
716.0,0.21359403813626512
717.0,0.21387085029020353
718.0,0.21413990344763842
719.0,0.21444645273739063
720.0,0.21481175436711145
721.0,0.21520582093939944
722.0,0.2155086671885609
723.0,0.21578031568829417
724.0,0.21607959264307172
725.0,0.2164144786055065
726.0,0.21673457926451048
727.0,0.21702739472891244
728.0,0.217315937073176
729.0,0.217647211548121
730.0,0.2180033048934442
731.0,0.21834511966460238
732.0,0.21864250736410903
733.0,0.21892417208324988
734.0,0.21921434827323763
735.0,0.2195374109210406
736.0,0.21989834932909813
737.0,0.22022389040645507
738.0,0.22054764542905128
739.0,0.22088000199402819
740.0,0.2211644062683148
741.0,0.2214874257474544
742.0,0.22181839762949523
743.0,0.2221229300919089
744.0,0.22246725935372214
745.0,0.22283843964960684
746.0,0.2232055015240058
747.0,0.22353808191182464
748.0,0.22389266276878525
749.0,0.22419611553621863
750.0,0.22448465624913067
751.0,0.224914954099458
752.0,0.22528596879521803
753.0,0.2256024071124355
754.0,0.22591715196043946
755.0,0.22629005372063862
756.0,0.22669882699332616
757.0,0.22710801238981723
758.0,0.22744149005612307
759.0,0.22729678332504819
760.0,0.2268223108194312
761.0,0.22656840396718306
762.0,0.2276354351633893
763.0,0.22834634471613163
764.0,0.22906074204634932
765.0,0.2297830705405184
766.0,0.23030715033434745
767.0,0.2307096133946945
768.0,0.23104742050416371
769.0,0.23135051043305013
770.0,0.23162022462879647
771.0,0.2319627784757898
772.0,0.2323388019326053
773.0,0.23265796820033055
774.0,0.2329938504221591
775.0,0.23335384082226276
776.0,0.23372221542236055
777.0,0.23407395610776022
778.0,0.23443373904055978
779.0,0.23478078494899585
780.0,0.2351128286571107
781.0,0.2354837468342497
782.0,0.2358377688514258
783.0,0.2361795708281894
784.0,0.23652710222614576
785.0,0.2368722061623879
786.0,0.23725086321148106
787.0,0.23764813588660927
788.0,0.23801935381140607
789.0,0.23837372893534578
790.0,0.23869136495704746
791.0,0.23899714419981893
792.0,0.23936476625947037
793.0,0.23974215181097142
794.0,0.2400949104950704
795.0,0.24041825461778665
796.0,0.24076360906654487
797.0,0.24108319217283156
798.0,0.2414123698233733
799.0,0.24178585531880023
800.0,0.24211082247463217
801.0,0.24247248079702347
802.0,0.24285167395594418
803.0,0.24318529522772303
804.0,0.24353863217098712
805.0,0.2438465260390904
806.0,0.24411599044347904
807.0,0.24444017046315117
808.0,0.24483412921797912
809.0,0.2452256356137388
810.0,0.24556658405573925
811.0,0.245897001432379
812.0,0.24624021829254716
813.0,0.2465584416298571
814.0,0.2468301961165274
815.0,0.24717266540340138
816.0,0.24751948878091007
817.0,0.24784641555053533
818.0,0.2481731982987875
819.0,0.24859708308531633
820.0,0.24895459897354097
821.0,0.249215892990878
822.0,0.24947536786038935
823.0,0.24985294154515297
824.0,0.25026400586849407
825.0,0.2505977363506497
826.0,0.2508233742527134
827.0,0.2511225976987396
828.0,0.2515199085463281
829.0,0.25193833260023313
830.0,0.2522022357999962
831.0,0.2524319283201752
832.0,0.2526879262239497
833.0,0.25299997281922926
834.0,0.2533755432370673
835.0,0.2537121372067145
836.0,0.25400664649482746
837.0,0.25430171954258535
838.0,0.2545815941868547
839.0,0.25487204676994396
840.0,0.2551776856845059
841.0,0.2554895694176791
842.0,0.25585067869369105
843.0,0.25619537904990936
844.0,0.2564712985514854
845.0,0.25667612158840625
846.0,0.257076515923597
847.0,0.2575180198915486
848.0,0.2578425055774487
849.0,0.2580380716839994
850.0,0.2583245468716305
851.0,0.25869183312687016
852.0,0.2590587922867386
853.0,0.25934094404031144
854.0,0.25972174405678283
855.0,0.2601269188629927
856.0,0.260428539642256
857.0,0.2607661456232001
858.0,0.2610874745812292
859.0,0.2614038723247465
860.0,0.2617405496471564
861.0,0.26204441026936365
862.0,0.2623244872779309
863.0,0.26258281408609935
864.0,0.26281902139679436
865.0,0.2630616849249317
866.0,0.2633691821091052
867.0,0.26373320793060184
868.0,0.2640777381400009
869.0,0.2645098029255355
870.0,0.2648139176505018
871.0,0.26495559519514084
872.0,0.265233418046265
873.0,0.26558223970289824
874.0,0.2659519931836904
875.0,0.2662912456985743
876.0,0.26655424308328635
877.0,0.26681636324029323
878.0,0.26715923673003483
879.0,0.2675800994062773
880.0,0.2678247561702885
881.0,0.26813343196768824
882.0,0.2685361685727335
883.0,0.26894145049025625
884.0,0.26912723883770523
885.0,0.26945387929694875
886.0,0.26989474696476246
887.0,0.27025781565706075
888.0,0.2706488577045052
889.0,0.27091118954111243
890.0,0.27117799477865356
891.0,0.2716937756058298
892.0,0.27219837113945766
893.0,0.2724621430902902
894.0,0.2725292832242073
895.0,0.2726836535294931
896.0,0.2730684073700428
897.0,0.27346556293734003
898.0,0.2737134125844089
899.0,0.27381831777820237
900.0,0.27405717855095946
901.0,0.2745293618357483
902.0,0.2750648136650978
903.0,0.2753213675171751
904.0,0.27555292163639933
905.0,0.2757793056386392
906.0,0.27598290978771356
907.0,0.27613884845761105
908.0,0.2762979984896501
909.0,0.27645730307425326
910.0,0.276684785145168
911.0,0.27715716200898716
912.0,0.27761360208913305
913.0,0.27807696902205326
914.0,0.2784773996690532
915.0,0.2784968802263034
916.0,0.27884821356274475
917.0,0.2792387869312441
918.0,0.27946369580688135
919.0,0.2799223005284225
920.0,0.28044969596366304
921.0,0.28079719985616264
922.0,0.28089768800777754
923.0,0.2810763505341523
924.0,0.2814647893340937
925.0,0.2817865450035067
926.0,0.2818449191234466
927.0,0.28194838284601165
928.0,0.28179813380488483
929.0,0.2812249260083178
930.0,0.2802092815392307
931.0,0.2791385159387827
932.0,0.27789350153279463
933.0,0.27646207354290725
934.0,0.2752559857166484
935.0,0.27556537079796306
936.0,0.2764098964894508
937.0,0.27768533691632263
938.0,0.2792731662933682
939.0,0.28050373036259707
940.0,0.28140391440484586
941.0,0.2817027215628716
942.0,0.28144210635401357
943.0,0.28148697516617716
944.0,0.2811063134863443
945.0,0.28126057921653913
946.0,0.2823004680629992
947.0,0.28209775501871465
948.0,0.28206731528746065
949.0,0.2826720409698355
950.0,0.2837621220735114
951.0,0.2845631717423233
952.0,0.2845686140922491
953.0,0.28430091838937055
954.0,0.28445496712885404
955.0,0.2854097104931923
956.0,0.28621705131595365
957.0,0.28698318188191574
958.0,0.28780001892955825
959.0,0.2883441158719653
960.0,0.2882495730595019
961.0,0.2887220268110304
962.0,0.289868332186238
963.0,0.29007991225963947
964.0,0.2911748280827724
965.0,0.2922999760066696
966.0,0.2927775460564722
967.0,0.2927602067913427
968.0,0.2932196836292323
969.0,0.2938783738095626
970.0,0.29440946956978004
971.0,0.2946753669453259
972.0,0.2947607772924364
973.0,0.2944495130472454
974.0,0.29426892304676133
975.0,0.29510637492625164
976.0,0.29532716961468136
977.0,0.29550878388631047
978.0,0.2957563726337204
979.0,0.29585886511410986
980.0,0.29677220165850876
981.0,0.2971550808395322
982.0,0.2970848702956288
983.0,0.29740629585784223
984.0,0.29822384531189855
985.0,0.29871666928766094
986.0,0.2989799528523388
987.0,0.299338981356647
988.0,0.2993073390269934
989.0,0.2995792892232598
990.0,0.2998052010621296
991.0,0.29964743818723333
992.0,0.2996908434247296
993.0,0.3001846381864883
994.0,0.30048288618284735
995.0,0.3003196262308032
996.0,0.3005292887506933
997.0,0.3012989805911867
998.0,0.3018881520356876
999.0,0.30192816561838226
1000.0,0.30177096976443857
1001.0,0.3090863666494442
1002.0,0.3095208595977789
1003.0,0.3097704782051329
1004.0,0.3098062355062081
1005.0,0.3101491682679278
1006.0,0.3106701824262116
1007.0,0.3111156988709525
1008.0,0.3118508174617007
1009.0,0.31225973850867245
1010.0,0.3122116886008713
1011.0,0.31211909966140994
1012.0,0.31192935105923064
1013.0,0.31190445078783396
1014.0,0.31249991241882347
1015.0,0.31302419198458664
1016.0,0.3133377461448813
1017.0,0.3136758058799128
1018.0,0.3139694549526064
1019.0,0.3139894821908038
1020.0,0.3141692805728823
1021.0,0.3144124669875183
1022.0,0.31486222394573493
1023.0,0.31509923278042506
1024.0,0.31523926218581694
1025.0,0.31553001902471534
1026.0,0.3157239542830111
1027.0,0.316069676137948
1028.0,0.31646950977997257
1029.0,0.3167460896523931
1030.0,0.3172613105252648
1031.0,0.31765653859233267
1032.0,0.31788718544050126
1033.0,0.3182469490523032
1034.0,0.3187526269520863
1035.0,0.31912248978754865
1036.0,0.3194456794208803
1037.0,0.3197829528928393
1038.0,0.32011879286303674
1039.0,0.3202815100380286
1040.0,0.3204883848440958
1041.0,0.3210443292398909
1042.0,0.3211956544119489
1043.0,0.3212925437984957
1044.0,0.3215489030775245
1045.0,0.32144972212221573
1046.0,0.3215811175161998
1047.0,0.32191636394889056
1048.0,0.3222501001920901
1049.0,0.3225991695800326
1050.0,0.3229879568219024
1051.0,0.3235366780069813
1052.0,0.32404836413458576
1053.0,0.3240870406505729
1054.0,0.3240850438530004
1055.0,0.32408910880677183
1056.0,0.3239840680998704
1057.0,0.3243009339825091
1058.0,0.32483302526183916
1059.0,0.3251523691029618
1060.0,0.32551770286903325
1061.0,0.32588136201183115
1062.0,0.3260305826378323
1063.0,0.32631410230359925
1064.0,0.32669025434005455
1065.0,0.3271063267240804
1066.0,0.32729346710678087
1067.0,0.32777027208900994
1068.0,0.3282319528136873
1069.0,0.3282917006213126
1070.0,0.32849717050309385
1071.0,0.32866858477727173
1072.0,0.32876409302589515
1073.0,0.32904603683315936
1074.0,0.3292988749490297
1075.0,0.32954135903713333
1076.0,0.32966521125492126
1077.0,0.329686089444272
1078.0,0.32984973900262654
1079.0,0.3300947057884962
1080.0,0.3303227150723976
1081.0,0.33064303453037847
1082.0,0.3311832497905022
1083.0,0.3315550915947042
1084.0,0.33168885419111854
1085.0,0.33180618315236804
1086.0,0.33172463770278265
1087.0,0.33190176931320503
1088.0,0.33231149383189085
1089.0,0.33261622835125243
1090.0,0.3329786950330558
1091.0,0.3331051830171961
1092.0,0.3333601622087198
1093.0,0.33364520517807056
1094.0,0.3338620621552852
1095.0,0.3340741779032184
1096.0,0.33446821615702593
1097.0,0.33464407133116797
1098.0,0.3348390389123027
1099.0,0.33520547934540557
1100.0,0.33557968622296314
1101.0,0.33596484435993357
1102.0,0.33633574453509285
1103.0,0.33659273427376146
1104.0,0.33666655833573383
1105.0,0.3367254817377102
1106.0,0.33694075986475
1107.0,0.3372452138276656
1108.0,0.3374617929501028
1109.0,0.3375234090378016
1110.0,0.33725727446729237
1111.0,0.3373002122056592
1112.0,0.33733425130284156
1113.0,0.33775904961582515
1114.0,0.33792435238237845
1115.0,0.3384430036217644
1116.0,0.3387439984793937
1117.0,0.33827002636491504
1118.0,0.3388041729703928
1119.0,0.3394046451220661
1120.0,0.33945936743007404
1121.0,0.34010344011059435
1122.0,0.34014987242531197
1123.0,0.33990787833370795
