Wavelength (nm),Reflectance
350.0,0.1256566223787081
351.0,0.12627577694782152
352.0,0.12675984575370844
353.0,0.12702431328819253
354.0,0.12729498422204286
355.0,0.12743478894330548
356.0,0.12768775133382906
357.0,0.12855012549908942
358.0,0.12871947283320917
359.0,0.1290663592611633
360.0,0.12997540204119745
361.0,0.13064338988797963
362.0,0.13112827219241027
363.0,0.13150410075673333
364.0,0.1319093443464738
365.0,0.1325971238207463
366.0,0.1333162593485736
367.0,0.13385363122468766
368.0,0.13415495013046205
369.0,0.13474686389800264
370.0,0.13531034274368212
371.0,0.13569963830755663
372.0,0.13599438422674
373.0,0.13683383351962583
374.0,0.13772671307538853
375.0,0.1383593841021265
376.0,0.1388056244583117
377.0,0.13948078012891763
378.0,0.1401709878753314
379.0,0.1407262533311312
380.0,0.14135517529504654
381.0,0.14232119642763072
382.0,0.14337596502127248
383.0,0.1441681362734381
384.0,0.14465164272176126
385.0,0.14551458685104604
386.0,0.14646811710696614
387.0,0.14691359308885027
388.0,0.14760442313279679
389.0,0.14832542930628007
390.0,0.149046972189782
391.0,0.1499241612186836
392.0,0.15057782649107662
393.0,0.1511527367686099
394.0,0.15181484833305095
395.0,0.1526228046367246
396.0,0.15327201851339034
397.0,0.15381160403135247
398.0,0.15436573538293635
399.0,0.1550253825164794
400.0,0.15548828851091198
401.0,0.15586913186476886
402.0,0.15638641701819608
403.0,0.1568648006609886
404.0,0.15737966186554084
405.0,0.15793714749747212
406.0,0.15847750845193004
407.0,0.15904419643519457
408.0,0.15967076027221258
409.0,0.16031242858913225
410.0,0.1607966076416465
411.0,0.16130229927382309
412.0,0.16186600206194474
413.0,0.1624618072800978
414.0,0.16299984668908923
415.0,0.16352250893872342
416.0,0.16407442556887442
417.0,0.1646782224006289
418.0,0.16521246262603295
419.0,0.16575735246125514
420.0,0.1663470244221986
421.0,0.16694830704784866
422.0,0.1676519538429069
423.0,0.16830721804103588
424.0,0.16884632517987247
425.0,0.16947539285603871
426.0,0.17014941404027595
427.0,0.17084462432816153
428.0,0.171534181321563
429.0,0.17216517752981242
430.0,0.17287878408428187
431.0,0.17363384676872232
432.0,0.1742747993543829
433.0,0.17500385872792348
434.0,0.17572634866821887
435.0,0.17638421596441617
436.0,0.17702165985807009
437.0,0.17762952858819742
438.0,0.17821255755260457
439.0,0.1787941073570378
440.0,0.17945541942719334
441.0,0.18010201496655331
442.0,0.18069808374699
443.0,0.1812606497306335
444.0,0.18192768474634832
445.0,0.18250837917432106
446.0,0.18296313353385477
447.0,0.18345087918730935
448.0,0.18395834491201157
449.0,0.18445291704538527
450.0,0.18491077179790505
451.0,0.1853449465032613
452.0,0.18579696545141708
453.0,0.18625246671483675
454.0,0.1866733888739929
455.0,0.1870459369670314
456.0,0.18740877989097085
457.0,0.18779642704889102
458.0,0.18822800576596427
459.0,0.18861538426196608
460.0,0.18900450031350688
461.0,0.18941350405786483
462.0,0.18974640721583985
463.0,0.19009436648421119
464.0,0.19045193767575333
465.0,0.19079532149927214
466.0,0.19118083931119598
467.0,0.19154670910725458
468.0,0.19191257499472436
469.0,0.19235434804437168
470.0,0.19274478924223046
471.0,0.1931090469070892
472.0,0.19349581961527426
473.0,0.19395758690205447
474.0,0.19433281703566624
475.0,0.1946545735594341
476.0,0.19501231756356902
477.0,0.1954502958031085
478.0,0.19586456543614916
479.0,0.19626142376838532
480.0,0.19671587083051761
481.0,0.1971522266057582
482.0,0.19753821737237034
483.0,0.1978998189015711
484.0,0.19834372068075234
485.0,0.19879298319366207
486.0,0.19924662258565226
487.0,0.19972438412146873
488.0,0.20024134235097754
489.0,0.2007584168824997
490.0,0.20123753013881596
491.0,0.20166010802909132
492.0,0.2020831296409195
493.0,0.20255807646473067
494.0,0.20306908578182126
495.0,0.2035045045732696
496.0,0.20395045965978248
497.0,0.2044407176336757
498.0,0.2049793318640499
499.0,0.2055190021291683
500.0,0.20598586861192386
501.0,0.20643319761328055
502.0,0.20698109822898422
503.0,0.20753228798409576
504.0,0.2080048658601041
505.0,0.2084146479554699
506.0,0.2089152588773898
507.0,0.20942526635269232
508.0,0.20992257697308134
509.0,0.21040673773309013
510.0,0.21089383947643023
511.0,0.21138692157966865
512.0,0.21190195891672878
513.0,0.21245062642491408
514.0,0.21291728602337942
515.0,0.21333205998944907
516.0,0.2137544436803913
517.0,0.21425500031728312
518.0,0.21482543595951842
519.0,0.21536797360460974
520.0,0.21580930598030074
521.0,0.21627431708851902
522.0,0.21673458380168806
523.0,0.2171930098008323
524.0,0.2176680725503976
525.0,0.2181461400850186
526.0,0.21859171450379095
527.0,0.2190101833673789
528.0,0.21948508689851565
529.0,0.21997427945280107
530.0,0.22043931926532606
531.0,0.2208667063271472
532.0,0.221291996137862
533.0,0.221746584414205
534.0,0.2222384510942618
535.0,0.2227519905179917
536.0,0.22318945852163105
537.0,0.2235897405327982
538.0,0.22400391252521382
539.0,0.22445250227843294
540.0,0.22490507680533747
541.0,0.22535375157823648
542.0,0.2257936037501189
543.0,0.2261862255017487
544.0,0.22657453650004952
545.0,0.22696577405907634
546.0,0.22733140098965096
547.0,0.22771433547413322
548.0,0.2281124676926383
549.0,0.22851093774831982
550.0,0.2288826016951477
551.0,0.229290466531319
552.0,0.22971981561071186
553.0,0.23013014844317703
554.0,0.23054458882518636
555.0,0.2309633498104623
556.0,0.23137943771200992
557.0,0.23177928637084833
558.0,0.23215105421940888
559.0,0.23253483353638085
560.0,0.23294360009693257
561.0,0.23329516367556022
562.0,0.2336055131189327
563.0,0.23389567812667142
564.0,0.23418826302658924
565.0,0.2344809459888401
566.0,0.23475884164740682
567.0,0.2350354962271956
568.0,0.23536184009661187
569.0,0.23571599167397775
570.0,0.23607797494064336
571.0,0.2364361480990437
572.0,0.23681745613060654
573.0,0.23722034562065922
574.0,0.2375945599286395
575.0,0.23787478487401384
576.0,0.23811446613919482
577.0,0.2384304254817884
578.0,0.23882151212834768
579.0,0.23910057366766643
580.0,0.2393196627126447
581.0,0.2395680156770781
582.0,0.2399022351007369
583.0,0.24021135465586135
584.0,0.24050230073978954
585.0,0.24077743301528193
586.0,0.2410361433813931
587.0,0.24130023947300025
588.0,0.24153898881131122
589.0,0.24175765137061778
590.0,0.24203675825354748
591.0,0.2423391245456261
592.0,0.24262385470339387
593.0,0.242865057268235
594.0,0.24305362340268652
595.0,0.24325572172879067
596.0,0.24349897850399152
597.0,0.24377284063519072
598.0,0.24403923291450405
599.0,0.24432383195130927
600.0,0.24462778582696673
601.0,0.24486981586290957
602.0,0.245131315059345
603.0,0.24538248868853088
604.0,0.24557209876659067
605.0,0.24576683497927265
606.0,0.2459935945784594
607.0,0.24623637459728345
608.0,0.24644136043468096
609.0,0.2467121636590225
610.0,0.24697894245823956
611.0,0.24718871406711357
612.0,0.24743462572287364
613.0,0.247695799724647
614.0,0.2479176784348059
615.0,0.24805824987489028
616.0,0.24829314844110448
617.0,0.2485635607751807
618.0,0.24881083598018974
619.0,0.24901415184283143
620.0,0.24920217303122552
621.0,0.2494206114648976
622.0,0.24967970655789692
623.0,0.2498650983464372
624.0,0.25007785791040976
625.0,0.25033802801507116
626.0,0.2506037460287992
627.0,0.25076770178786284
628.0,0.25092596115802535
629.0,0.25114868198838863
630.0,0.251428599736773
631.0,0.25167935751093784
632.0,0.25187510642452665
633.0,0.25203915733391397
634.0,0.25229223304450654
635.0,0.2525433733403161
636.0,0.25275931770678645
637.0,0.2529534983399633
638.0,0.2531674218548236
639.0,0.2534048396393172
640.0,0.25364575965517366
641.0,0.253831814861284
642.0,0.25401038167395773
643.0,0.2542087912838197
644.0,0.25443315716188003
645.0,0.2546228285102419
646.0,0.2547948167494777
647.0,0.254970665872878
648.0,0.2551722966723926
649.0,0.2553970812883305
650.0,0.25561400392711636
651.0,0.2558035084968755
652.0,0.2559833076442957
653.0,0.2561661094166757
654.0,0.256392655310617
655.0,0.2566814207928216
656.0,0.2568362684318184
657.0,0.25703194229884835
658.0,0.25727806008284393
659.0,0.25745903323372377
660.0,0.2576267555538622
661.0,0.25779658654493937
662.0,0.2579696560534044
663.0,0.25813560502153415
664.0,0.2583446744493578
665.0,0.25856704350096704
666.0,0.25875170941331344
667.0,0.2589109118969987
668.0,0.2590721362132306
669.0,0.2592591635621983
670.0,0.25948855452986075
671.0,0.2597012088700208
672.0,0.25987022753628036
673.0,0.26000032361368514
674.0,0.26015780443380127
675.0,0.2602835399951475
676.0,0.26041818594711735
677.0,0.26061918705813486
678.0,0.26079931189265587
679.0,0.26099714466458074
680.0,0.2611960348886551
681.0,0.2613219763763819
682.0,0.26151605549819584
683.0,0.2617146256930491
684.0,0.26185108029241283
685.0,0.2619719839422425
686.0,0.261912884449457
687.0,0.2618311878171499
688.0,0.2620380499786987
689.0,0.26228818859553227
690.0,0.2625180764975055
691.0,0.26271584475275683
692.0,0.26287499454922064
693.0,0.263003791745796
694.0,0.263153355464545
695.0,0.263339386676893
696.0,0.2634826477112913
697.0,0.26364906077423556
698.0,0.2638307102736896
699.0,0.263990967489633
700.0,0.26411523529721814
701.0,0.2642289220430465
702.0,0.2643612807364713
703.0,0.26453637463826507
704.0,0.26471850237779604
705.0,0.26486467466250496
706.0,0.2649706641062577
707.0,0.26511395756555883
708.0,0.2652764060188991
709.0,0.2654517056307279
710.0,0.26562763125865557
711.0,0.2657547917738606
712.0,0.2659089040335953
713.0,0.26608409620965795
714.0,0.2661978608853871
715.0,0.26634766117398206
716.0,0.2664381572537992
717.0,0.2664319437309287
718.0,0.26651348444329837
719.0,0.2666774537500962
720.0,0.26690790992530045
721.0,0.26715583609874605
722.0,0.2673717183299073
723.0,0.2674734288219288
724.0,0.26753425800539155
725.0,0.26773244815199265
726.0,0.2678935689370105
727.0,0.26804035968694245
728.0,0.26819959629558565
729.0,0.26833403444511894
730.0,0.2685200427863582
731.0,0.2687446082076132
732.0,0.26896831311020536
733.0,0.2691893449312168
734.0,0.26931147124338356
735.0,0.26940735560134305
736.0,0.2696266935465628
737.0,0.26980658975339095
738.0,0.2699599745195065
739.0,0.27011613634749365
740.0,0.2702885497700649
741.0,0.2704835524004597
742.0,0.2706733805501347
743.0,0.2708285495790779
744.0,0.2709367887420612
745.0,0.2711559851142306
746.0,0.2714223110575828
747.0,0.2715772402080795
748.0,0.27168558682495747
749.0,0.27183383652392157
750.0,0.27202819805672046
751.0,0.27218498833248556
752.0,0.27240731952255454
753.0,0.2726185212853478
754.0,0.27276516735666295
755.0,0.2729235067614996
756.0,0.2731403270991622
757.0,0.2733962007560698
758.0,0.27359749669581573
759.0,0.27330314985948656
760.0,0.2724053204978886
761.0,0.2713765484070964
762.0,0.2725079315055341
763.0,0.2729295540421551
764.0,0.2734082797175448
765.0,0.2741688403195903
766.0,0.27476415027985207
767.0,0.27514124272083695
768.0,0.27540118199353736
769.0,0.2756133848901072
770.0,0.2757817040114204
771.0,0.2759179337530215
772.0,0.27605898259336054
773.0,0.2762460141650053
774.0,0.27646073692041534
775.0,0.2766420280898613
776.0,0.2767939034467708
777.0,0.2769873234024197
778.0,0.27715417798090014
779.0,0.2773438585522351
780.0,0.2775603003903295
781.0,0.2776791098281077
782.0,0.2778387379200067
783.0,0.27801867054821455
784.0,0.2781703980841773
785.0,0.27834087362932086
786.0,0.2785253557221824
787.0,0.27870299356443967
788.0,0.27885054668043335
789.0,0.27900915176779634
790.0,0.27917276956139525
791.0,0.2793205541497424
792.0,0.2794265872143291
793.0,0.27956220443600477
794.0,0.2797565657650967
795.0,0.2799819408194291
796.0,0.2801176130699868
797.0,0.2802945889215171
798.0,0.28048632822362274
799.0,0.2806259111192038
800.0,0.28067170845672396
801.0,0.2807860477877172
802.0,0.28097458121729707
803.0,0.28114787207146386
804.0,0.2812861817498615
805.0,0.2814286327428284
806.0,0.2815642640693614
807.0,0.28163800634520936
808.0,0.28178081493560997
809.0,0.2820060474190029
810.0,0.28223998898824065
811.0,0.28229990554401674
812.0,0.28237051307922706
813.0,0.28244307819148146
814.0,0.2824720875884239
815.0,0.28248979133175317
816.0,0.2825649976558104
817.0,0.2827185988225354
818.0,0.2829208303506888
819.0,0.28306450267453787
820.0,0.28331269970870404
821.0,0.2835344482823611
822.0,0.28343433156113845
823.0,0.2834446240488837
824.0,0.2835950830588512
825.0,0.28381476446514997
826.0,0.2840277892853955
827.0,0.284157143699791
828.0,0.28419578134575946
829.0,0.2842171900849626
830.0,0.28444340675832747
831.0,0.2845526280061056
832.0,0.2846050065565378
833.0,0.28472205909153464
834.0,0.28478664183162644
835.0,0.28487415222586476
836.0,0.285006626471266
837.0,0.2851758722558779
838.0,0.28538927580560147
839.0,0.2854540126591684
840.0,0.2854149854701015
841.0,0.28549648912377984
842.0,0.28565009888959336
843.0,0.28577718933120905
844.0,0.28586572991130443
845.0,0.28601361493465977
846.0,0.2860760467453079
847.0,0.2861549733667175
848.0,0.2862622499937863
849.0,0.28614383963156215
850.0,0.2861874212805542
851.0,0.2864269102721876
852.0,0.28671210839796124
853.0,0.2866957574888733
854.0,0.28663320470387676
855.0,0.2866994486762133
856.0,0.2869340105333898
857.0,0.28705420589962055
858.0,0.28710623307374245
859.0,0.2871313437901137
860.0,0.2871635942996262
861.0,0.2872243999271118
862.0,0.2872623219868866
863.0,0.28730740609896965
864.0,0.2874271103107837
865.0,0.2873182115060513
866.0,0.28729125142060247
867.0,0.28744037034720216
868.0,0.2874991684074569
869.0,0.2874610376818708
870.0,0.2875582121282861
871.0,0.287795083059582
872.0,0.2877841364768787
873.0,0.2878498402529456
874.0,0.2879548434982257
875.0,0.2880029733490203
876.0,0.28795472241491277
877.0,0.2879775438928676
878.0,0.2880736061508376
879.0,0.28817440938839584
880.0,0.28815988581063784
881.0,0.2882656732693643
882.0,0.2883879566617698
883.0,0.2883854036592888
884.0,0.28850510013527464
885.0,0.288626204941988
886.0,0.28876567641347295
887.0,0.2889584086462793
888.0,0.28898040165969907
889.0,0.2889810215665337
890.0,0.2889882935508131
891.0,0.28897411591574784
892.0,0.289152998352157
893.0,0.28927677551882136
894.0,0.28919771264005206
895.0,0.2889360669705154
896.0,0.28883308953326214
897.0,0.2887824580528598
898.0,0.2887091969322805
899.0,0.28866003834357856
900.0,0.2889233191777199
901.0,0.2889592164462121
902.0,0.2887915597259704
903.0,0.28908582111022924
904.0,0.2893458501333136
905.0,0.28934420386771625
906.0,0.2891049574328621
907.0,0.2889273917317801
908.0,0.28874843103514264
909.0,0.2885973369861615
910.0,0.28852087007176686
911.0,0.2885626870321182
912.0,0.2887117485910883
913.0,0.28883691233407705
914.0,0.28886710162389173
915.0,0.2888806409168102
916.0,0.2887611655967338
917.0,0.2887710847235901
918.0,0.28904094030462235
919.0,0.28931774609934535
920.0,0.28951002358676714
921.0,0.2897079856465671
922.0,0.2898627808989626
923.0,0.2895347095902026
924.0,0.28960756875629656
925.0,0.289699419471823
926.0,0.2893749391741529
927.0,0.28896826506031054
928.0,0.28840191996220116
929.0,0.2877331294608587
930.0,0.2868201018265359
931.0,0.2847794396589565
932.0,0.2830942290267952
933.0,0.2819546260270334
934.0,0.28090712487332303
935.0,0.27955633997736956
936.0,0.27965670023878364
937.0,0.28104599676645825
938.0,0.2827304511130767
939.0,0.28362018622395463
940.0,0.2839595691175886
941.0,0.28433499188785966
942.0,0.2848507054423782
943.0,0.28428646201473445
944.0,0.2840129941103996
945.0,0.2837510539495496
946.0,0.2832074244620449
947.0,0.2832255900995941
948.0,0.28335646891873084
949.0,0.2837867453442138
950.0,0.2843769413256992
951.0,0.2840954532964268
952.0,0.28440061260320093
953.0,0.28500918225249644
954.0,0.28533334552383266
955.0,0.28512389011263817
956.0,0.28515591240551785
957.0,0.28563901868833835
958.0,0.2863338325989299
959.0,0.2865940190758281
960.0,0.2860937532163808
961.0,0.28622190715052737
962.0,0.28731173743481986
963.0,0.2878901846777554
964.0,0.28857064943189586
965.0,0.28877690203630757
966.0,0.28868206954644376
967.0,0.28934545174236764
968.0,0.29018082154310154
969.0,0.29031363026395435
970.0,0.2899564833045756
971.0,0.29028281475071704
972.0,0.290609480873296
973.0,0.2908197599689923
974.0,0.29092228880717785
975.0,0.29093105057764135
976.0,0.29035920125713593
977.0,0.2899437486400833
978.0,0.28997014120294784
979.0,0.2902767905960463
980.0,0.29089348461263254
981.0,0.2915690254235334
982.0,0.2917587659201357
983.0,0.29124969775684345
984.0,0.29164269367766155
985.0,0.2919879124221655
986.0,0.29191323652279666
987.0,0.2915264980915548
988.0,0.2914474270235781
989.0,0.29116866492461996
990.0,0.29118295323414384
991.0,0.2917046476755374
992.0,0.29150235165032323
993.0,0.2908445109670315
994.0,0.290816530929364
995.0,0.29158533956774835
996.0,0.2914119414068551
997.0,0.2910897507206426
998.0,0.2906633921187592
999.0,0.29030949161886394
1000.0,0.29044013739413344
1001.0,0.3020281135602153
1002.0,0.30191666239453613
1003.0,0.3020817032308555
1004.0,0.302555100275493
1005.0,0.3026192136356796
1006.0,0.3025740474380521
1007.0,0.302463005448263
1008.0,0.30196133466302677
1009.0,0.3017732203365213
1010.0,0.30172377964058106
1011.0,0.30196171521010046
1012.0,0.302403138646785
1013.0,0.30244981274047805
1014.0,0.3024726007967966
1015.0,0.3025907196264244
1016.0,0.3026306429000713
1017.0,0.30256907232873453
1018.0,0.30265908644511524
1019.0,0.30266394703327615
1020.0,0.30288994674148084
1021.0,0.3034484045617889
1022.0,0.30360743150659086
1023.0,0.30359785732977546
1024.0,0.30367053546596234
1025.0,0.3034029224685468
1026.0,0.30298172914891125
1027.0,0.30291385124083053
1028.0,0.3032118999347187
1029.0,0.30334634029298163
1030.0,0.30363845103362425
1031.0,0.3037940242843224
1032.0,0.3038513273955054
1033.0,0.30377693021327756
1034.0,0.30353458547936046
1035.0,0.3035072540361319
1036.0,0.3034792620336199
1037.0,0.30349670574453896
1038.0,0.3036077458319876
1039.0,0.30391095281998753
1040.0,0.3042774702722797
1041.0,0.30433919781330643
1042.0,0.30457312596246094
1043.0,0.30478384969170985
1044.0,0.3046179704666086
1045.0,0.30501668895490686
1046.0,0.3052458870362111
1047.0,0.3055472404357559
1048.0,0.30555993264241227
1049.0,0.3053710714261829
1050.0,0.3052323407319693
1051.0,0.3048871654569259
1052.0,0.3048618738891181
1053.0,0.3050467225523122
1054.0,0.3053366601213058
1055.0,0.3056277972004593
1056.0,0.30583117407599303
1057.0,0.3058803957888387
1058.0,0.30584539479631434
1059.0,0.3060793274044576
1060.0,0.3062253488956913
1061.0,0.30630912166614854
1062.0,0.30656639196478314
1063.0,0.3066491341275274
1064.0,0.306561666001043
1065.0,0.3064928803205846
1066.0,0.3065544731732465
1067.0,0.3063538555833972
1068.0,0.30614709376122756
1069.0,0.30623108455594583
1070.0,0.30632358483623734
1071.0,0.30647289263168004
1072.0,0.3065849827325187
1073.0,0.3067265643569971
1074.0,0.3070931259898004
1075.0,0.30735644081878855
1076.0,0.30754483133883637
1077.0,0.30756808016745546
1078.0,0.30747527013406706
1079.0,0.3070125977206107
1080.0,0.30687679440310794
1081.0,0.3069110329352567
1082.0,0.3068430789272432
1083.0,0.3069790491003721
1084.0,0.3070419605363563
1085.0,0.30710922673153424
1086.0,0.30730625292758357
1087.0,0.30753893332200244
1088.0,0.30765376741624606
1089.0,0.30768996749253547
1090.0,0.3078105829543792
1091.0,0.3079655947391476
1092.0,0.30823976655050667
1093.0,0.30845341970282614
1094.0,0.30852553115725767
1095.0,0.3085461967526069
1096.0,0.30850165554280157
1097.0,0.3083449921515623
1098.0,0.3082792689392556
1099.0,0.3085123266563292
1100.0,0.30877166464725303
1101.0,0.3088309207679959
1102.0,0.3088925086013389
1103.0,0.30865916727310005
1104.0,0.3084270603085675
1105.0,0.30846689905213315
1106.0,0.308498216970694
1107.0,0.30879526676162405
1108.0,0.3091396103666837
1109.0,0.30936619504233154
1110.0,0.3094619022839047
1111.0,0.3095633634672969
1112.0,0.30955026027667826
1113.0,0.309624324341192
1114.0,0.3095831790537628
1115.0,0.30957786304229834
1116.0,0.309559944360988
1117.0,0.30925705320182867
1118.0,0.3088178245113913
1119.0,0.3085414547930982
1120.0,0.30817980621902613
1121.0,0.307367422299329
1122.0,0.30696511624240785
1123.0,0.3066415970098681
1124.0,0.30672397989551176
1125.0,0.3074621577420807
1126.0,0.3078547115096147
1127.0,0.3085336162772128
