Wavelength (nm),Reflectance
350.0,0.09699441746194305
351.0,0.09720127160118644
352.0,0.09753437998971387
353.0,0.09754738190233085
354.0,0.09791429236121692
355.0,0.09856287063065582
356.0,0.09931782515271002
357.0,0.09998112064734879
358.0,0.10045949760771142
359.0,0.1006571298962222
360.0,0.10070123714591755
361.0,0.10100040464899315
362.0,0.10155461816928252
363.0,0.10211402201861168
364.0,0.10252712138896608
365.0,0.10302672655350484
366.0,0.10353353703232375
367.0,0.1039510013052926
368.0,0.10423943315162239
369.0,0.1046089299387785
370.0,0.1052810184501645
371.0,0.1061162999256574
372.0,0.1067746322285924
373.0,0.10740705701757251
374.0,0.1080627837712099
375.0,0.10869482261146805
376.0,0.10917659082706611
377.0,0.10985802692484616
378.0,0.11080387160724807
379.0,0.11182090054238464
380.0,0.11231662874754125
381.0,0.11291861923039295
382.0,0.11370745172834049
383.0,0.11458528904885247
384.0,0.1155294946761705
385.0,0.11632504992397678
386.0,0.11704611323012505
387.0,0.11788406100128519
388.0,0.11875986290051566
389.0,0.11960227028593289
390.0,0.12030084176972043
391.0,0.12074783405416219
392.0,0.12142803087513097
393.0,0.12214319190890788
394.0,0.1228180424727651
395.0,0.12374379547759866
396.0,0.12451037074767282
397.0,0.12518501976063753
398.0,0.12584252330221915
399.0,0.12623030469918006
400.0,0.12675796077145404
401.0,0.12733265983047662
402.0,0.1277495017411532
403.0,0.12831741637318347
404.0,0.12895186669071854
405.0,0.12957170743307217
406.0,0.1301302673757837
407.0,0.13073790054619783
408.0,0.13141824753196563
409.0,0.1321048628430044
410.0,0.13260841741017915
411.0,0.13316176681477007
412.0,0.13378680234742177
413.0,0.134442039663092
414.0,0.13508375420647017
415.0,0.13572854295679687
416.0,0.1363466618033643
417.0,0.1369045312494894
418.0,0.13750433343700355
419.0,0.1381721234690258
420.0,0.13890621181568638
421.0,0.13968153795429325
422.0,0.14037277935989892
423.0,0.14099003691333456
424.0,0.14161656153609867
425.0,0.14243873502515492
426.0,0.14322022616588995
427.0,0.1439653873249558
428.0,0.14475051905142108
429.0,0.1455536557921806
430.0,0.1463515846326693
431.0,0.14716526382097606
432.0,0.1480311185365418
433.0,0.1487917627822663
434.0,0.1495771020316462
435.0,0.1504223938888658
436.0,0.15117887203909297
437.0,0.1519326616242587
438.0,0.15269410409909073
439.0,0.15345428901731334
440.0,0.15421144577800525
441.0,0.15496447328853155
442.0,0.15570050043762823
443.0,0.15640298828764052
444.0,0.1570660047834405
445.0,0.1577085511638189
446.0,0.15835058497561708
447.0,0.15900599226061604
448.0,0.15955101492652202
449.0,0.16011133625702728
450.0,0.16075753350566577
451.0,0.16129942507329068
452.0,0.16177541015316216
453.0,0.1622512592678575
454.0,0.16278037622972438
455.0,0.16323943975024777
456.0,0.16371108782113966
457.0,0.16419251134040086
458.0,0.16459635194798786
459.0,0.16500003714525843
460.0,0.16543146825605345
461.0,0.16589203998495253
462.0,0.1663485707414718
463.0,0.1667914022855426
464.0,0.16720848619736325
465.0,0.16760312457893858
466.0,0.16803550185673452
467.0,0.1684679466509591
468.0,0.16889904050299223
469.0,0.1693549969052162
470.0,0.16978037019725414
471.0,0.17017424488622393
472.0,0.1705803427665698
473.0,0.1711071996817904
474.0,0.17155668357197643
475.0,0.17200931317846407
476.0,0.17255876268349557
477.0,0.17298763767150724
478.0,0.17338855161538883
479.0,0.1738440597058306
480.0,0.17440144663795967
481.0,0.1748998344709573
482.0,0.17535434255571455
483.0,0.1758263830582255
484.0,0.17641026441585983
485.0,0.17695445272332602
486.0,0.17752994905822203
487.0,0.17820098477385998
488.0,0.17873565813089004
489.0,0.17926897098346478
490.0,0.1798375511917622
491.0,0.18041251655811932
492.0,0.18097996533258795
493.0,0.18155852271378012
494.0,0.1821660516095323
495.0,0.1828151627176777
496.0,0.1834310699710556
497.0,0.18402034433787187
498.0,0.184624385622261
499.0,0.18530234149849
500.0,0.1859962172311625
501.0,0.18665609767665534
502.0,0.18725356722574743
503.0,0.18787306287526842
504.0,0.18850849963493915
505.0,0.18915481414857474
506.0,0.1898301586371352
507.0,0.19049431986491497
508.0,0.19112104862050644
509.0,0.19170981736037299
510.0,0.1923166027952727
511.0,0.19296534813608757
512.0,0.1936162696956978
513.0,0.19420488249554171
514.0,0.19485705917565102
515.0,0.19554492695824457
516.0,0.19622861541819878
517.0,0.196876712543034
518.0,0.1975549050341356
519.0,0.19823619963853975
520.0,0.19887298384734445
521.0,0.19946878381814936
522.0,0.2000698166063468
523.0,0.20069455115010265
524.0,0.2013358136876767
525.0,0.20197499693587523
526.0,0.20262933089202495
527.0,0.2033088814423164
528.0,0.20401331037458867
529.0,0.20466363864462556
530.0,0.2052905319669708
531.0,0.20596347320263927
532.0,0.20671483075794125
533.0,0.2074074372946365
534.0,0.20804136474248747
535.0,0.20872953412887305
536.0,0.20944561164895723
537.0,0.21016351971203656
538.0,0.210872605249869
539.0,0.2115719336937816
540.0,0.21223193143772584
541.0,0.21289908513866806
542.0,0.21361490311804524
543.0,0.2142477517980077
544.0,0.21487066876330319
545.0,0.21549259190914855
546.0,0.2160584079100156
547.0,0.2166716311635872
548.0,0.21731426894643804
549.0,0.21796776569212278
550.0,0.21866824860079104
551.0,0.21939262052205843
552.0,0.22014013821054126
553.0,0.22092001484447946
554.0,0.22176434608545925
555.0,0.22261264727556296
556.0,0.22343410587699358
557.0,0.2242352783694665
558.0,0.2249949350577823
559.0,0.2257000708634752
560.0,0.22634901652420622
561.0,0.22697623733801645
562.0,0.22754267588204236
563.0,0.22809143986616964
564.0,0.22868040914201246
565.0,0.22918205031252756
566.0,0.22963332271665415
567.0,0.2300912304886434
568.0,0.23061765786223593
569.0,0.231310550463045
570.0,0.2320832129261719
571.0,0.2328432415043818
572.0,0.2336844390888374
573.0,0.23450647715220319
574.0,0.2352320448166004
575.0,0.2358145311747319
576.0,0.2363214760961848
577.0,0.2367982143913304
578.0,0.23726948489919636
579.0,0.23773454815475287
580.0,0.238186589550888
581.0,0.23863052699729473
582.0,0.23908012704223316
583.0,0.239558260935812
584.0,0.24006839267921792
585.0,0.2406066199130686
586.0,0.2411585103853148
587.0,0.2417020425075757
588.0,0.24219199478435002
589.0,0.24263772135318654
590.0,0.24314665515211595
591.0,0.2435650768271674
592.0,0.24393023742616354
593.0,0.24432432167399623
594.0,0.24466085621213576
595.0,0.2449822741857899
596.0,0.24530945872667906
597.0,0.24564310595923705
598.0,0.24597036644254627
599.0,0.24634281376619105
600.0,0.24677465095111142
601.0,0.2471791069956881
602.0,0.24756970821284505
603.0,0.24792718870253766
604.0,0.24823880134461154
605.0,0.24856846298963833
606.0,0.24889393514506267
607.0,0.24919259080807485
608.0,0.2494508827290919
609.0,0.24976553953083697
610.0,0.2501017430819574
611.0,0.2504129690627648
612.0,0.25070563541757684
613.0,0.2509895185060001
614.0,0.2512840738680978
615.0,0.2516054235138191
616.0,0.2519235627614252
617.0,0.2522178328294257
618.0,0.25248992430594885
619.0,0.2527739792378649
620.0,0.2530054103238147
621.0,0.2532493009909795
622.0,0.2535608951988109
623.0,0.25387653965293644
624.0,0.2541384509316787
625.0,0.25438122265518603
626.0,0.25468009978556394
627.0,0.25490697763789494
628.0,0.2552025033260928
629.0,0.2555845371632506
630.0,0.2558413620154394
631.0,0.2560458720262795
632.0,0.2562713416614019
633.0,0.25655507498440283
634.0,0.2567933363523
635.0,0.25707422964798315
636.0,0.25736403563317917
637.0,0.25755845752023965
638.0,0.2577634218411022
639.0,0.2580048441405821
640.0,0.258277562265029
641.0,0.25853490831040304
642.0,0.2587861025248056
643.0,0.2590336448640143
644.0,0.259283561236945
645.0,0.2595417826716781
646.0,0.25984712648329134
647.0,0.2601338522727678
648.0,0.2602707472047844
649.0,0.2604495841376373
650.0,0.2606646717553963
651.0,0.2608967079865044
652.0,0.2611792967451234
653.0,0.2614525299312725
654.0,0.261683192872679
655.0,0.2618743483308986
656.0,0.26212438142908007
657.0,0.26237390017575724
658.0,0.26259289349325854
659.0,0.2628282890759107
660.0,0.26302621374068086
661.0,0.26323028855678005
662.0,0.2634668522974421
663.0,0.26371395345017956
664.0,0.2639122759953156
665.0,0.26408334308981335
666.0,0.26427972278082645
667.0,0.2645038739560251
668.0,0.26476396500161914
669.0,0.2650217933154639
670.0,0.2652044268651576
671.0,0.26537357640803305
672.0,0.26556758264154773
673.0,0.26579699848764066
674.0,0.26603264392987697
675.0,0.2662083976094558
676.0,0.2663554683187313
677.0,0.2665423328346782
678.0,0.26679086709984967
679.0,0.2669848188238261
680.0,0.2671284083915187
681.0,0.2673509696934948
682.0,0.26753040106392795
683.0,0.2676803182649338
684.0,0.26783886810065727
685.0,0.2680481668760549
686.0,0.26822715961199006
687.0,0.26839313217715055
688.0,0.2685810286626746
689.0,0.268799860907668
690.0,0.2690090168700958
691.0,0.26920811383168075
692.0,0.26940826629392134
693.0,0.26960401388438326
694.0,0.26977067457841203
695.0,0.2698939981392931
696.0,0.2699922667765812
697.0,0.27017992268022356
698.0,0.2704328600421129
699.0,0.27066679849754527
700.0,0.2708293468051548
701.0,0.2709590572111859
702.0,0.27109870476628734
703.0,0.27128066378818105
704.0,0.27145697316854805
705.0,0.2716202481384641
706.0,0.27178374406953437
707.0,0.27199224965915286
708.0,0.272143190684656
709.0,0.27228046706488795
710.0,0.27248097814386224
711.0,0.2726654207969123
712.0,0.27284673225515155
713.0,0.2730276090314861
714.0,0.2731980806268362
715.0,0.27338241541853814
716.0,0.27357988545845
717.0,0.2737861837099649
718.0,0.27397076594661685
719.0,0.27413997649049326
720.0,0.2743217606720508
721.0,0.2745325397447632
722.0,0.27471628654962726
723.0,0.27488619609255144
724.0,0.2750821587658752
725.0,0.27532709095205654
726.0,0.2754936610453832
727.0,0.27564125458988364
728.0,0.2758229717672411
729.0,0.276012500637073
730.0,0.2762287308749303
731.0,0.2764089109322216
732.0,0.2765087489149337
733.0,0.2766319588506239
734.0,0.27676006308551776
735.0,0.2769134552451967
736.0,0.2771243760801231
737.0,0.27733008488727456
738.0,0.2775287693963655
739.0,0.277705038713496
740.0,0.27780442347229567
741.0,0.27797679381948903
742.0,0.2781791430249601
743.0,0.27835274275202687
744.0,0.27856639608317674
745.0,0.2788037819265624
746.0,0.2790128970195731
747.0,0.2791506420981927
748.0,0.27936512099487093
749.0,0.2795721846700997
750.0,0.27975238484278386
751.0,0.2799774782147335
752.0,0.2802026934691026
753.0,0.2803897624643619
754.0,0.28054087271764355
755.0,0.2807419670083289
756.0,0.2809989875564403
757.0,0.28126450953954674
758.0,0.2814554262254585
759.0,0.28133438569495406
760.0,0.2809395190872853
761.0,0.28063060966481174
762.0,0.28142359040802956
763.0,0.28206984110807554
764.0,0.28264605961991907
765.0,0.2830795409325913
766.0,0.2832811583904013
767.0,0.2834362056116059
768.0,0.2835854494873268
769.0,0.2837281646433194
770.0,0.2838268905792335
771.0,0.283961147077714
772.0,0.28412162438077715
773.0,0.28426609907795203
774.0,0.2844363068634901
775.0,0.284628998317771
776.0,0.28482979294410193
777.0,0.2850193739436047
778.0,0.28516307702971483
779.0,0.2852877228247867
780.0,0.2854421065591579
781.0,0.28569929446228876
782.0,0.28589910880194236
783.0,0.2860589293452825
784.0,0.2862327606396344
785.0,0.286373329001754
786.0,0.2865602538365502
787.0,0.28678749612901844
788.0,0.2869955944931514
789.0,0.28717378993522624
790.0,0.2873057849907644
791.0,0.28741828859216806
792.0,0.2875815712626941
793.0,0.28776441119077767
794.0,0.28793250035212054
795.0,0.2880750966816274
796.0,0.28823597122496286
797.0,0.2883353945400424
798.0,0.28843546391662134
799.0,0.28860491625206564
800.0,0.28875357949486574
801.0,0.2889045661012965
802.0,0.2890490198343558
803.0,0.2891661562443242
804.0,0.28926936399064135
805.0,0.28937754694942763
806.0,0.2894829695587425
807.0,0.28956152927630796
808.0,0.2897568138981935
809.0,0.28995940039660345
810.0,0.2900995411943513
811.0,0.29027449398399174
812.0,0.2904022914723104
813.0,0.29048735314697405
814.0,0.2905793502444863
815.0,0.29080285423948893
816.0,0.2909645286807065
817.0,0.29104048423269047
818.0,0.29112017361491094
819.0,0.29131601303251636
820.0,0.291394838008648
821.0,0.29137369410497493
822.0,0.29145116499401696
823.0,0.29158228748462994
824.0,0.29169586130929687
825.0,0.29176045215697705
826.0,0.291814260074941
827.0,0.29180906874278756
828.0,0.2919142680913599
829.0,0.2921668737798992
830.0,0.29221318736866675
831.0,0.29218403367814433
832.0,0.2921950572004896
833.0,0.29230793861684307
834.0,0.2924058347214383
835.0,0.2924786277047436
836.0,0.2925257185826086
837.0,0.2925531958288987
838.0,0.2925549991096148
839.0,0.29259816135846595
840.0,0.29268784968337924
841.0,0.29277705210074767
842.0,0.29285900027877876
843.0,0.29293931165494297
844.0,0.292984387969961
845.0,0.29292691113195984
846.0,0.29304492422309236
847.0,0.2931391508328448
848.0,0.2931073610571243
849.0,0.29320747490835203
850.0,0.2932894917763691
851.0,0.2933753867946912
852.0,0.29348731466436445
853.0,0.2934893690423166
854.0,0.29360923605065853
855.0,0.2938105121417732
856.0,0.29394066053811324
857.0,0.2939011957065434
858.0,0.2939260019766954
859.0,0.29404533969366736
860.0,0.2941638616912952
861.0,0.2942179747234652
862.0,0.2941957474314632
863.0,0.2941195092926882
864.0,0.29404792653219797
865.0,0.2941490218686007
866.0,0.2942805216375101
867.0,0.29434858339929193
868.0,0.29438556605661614
869.0,0.29440282831495324
870.0,0.29441694734420265
871.0,0.2944335065449883
872.0,0.29444245833673227
873.0,0.29452527951046265
874.0,0.29464111256440373
875.0,0.2947235941818609
876.0,0.2947194673681303
877.0,0.2947912022229348
878.0,0.29489349274229504
879.0,0.2949284555513015
880.0,0.2948269750228786
881.0,0.2948569098051732
882.0,0.29499344530142885
883.0,0.29511443656534714
884.0,0.29521178791357716
885.0,0.2954511648428217
886.0,0.2956553471979746
887.0,0.29559847719390725
888.0,0.29570992291052633
889.0,0.29583362060442187
890.0,0.29588360019972315
891.0,0.2958840208280603
892.0,0.2961545606335976
893.0,0.296277060200836
894.0,0.2961494859511193
895.0,0.29601875407463063
896.0,0.2961642187229362
897.0,0.2963803834337565
898.0,0.29647975719410735
899.0,0.2964214329391621
900.0,0.2965486889199009
901.0,0.29666374118656746
902.0,0.2966528164601483
903.0,0.29660176822854717
904.0,0.29664600927541146
905.0,0.2967115052088161
906.0,0.2966717343170016
907.0,0.2964084420812457
908.0,0.29663066244476377
909.0,0.2968079170063689
910.0,0.2966488229121467
911.0,0.2966803433858501
912.0,0.2967208313631982
913.0,0.29687832397906616
914.0,0.2971081057868037
915.0,0.2970319605939609
916.0,0.29709213815556873
917.0,0.29715563779971615
918.0,0.29716279361689546
919.0,0.2974268076486025
920.0,0.29753001960131553
921.0,0.2975614257947658
922.0,0.29761832254317416
923.0,0.2975526969329557
924.0,0.2975565089539898
925.0,0.2976312764980701
926.0,0.29765783190335215
927.0,0.2973665366775276
928.0,0.2970875895071418
929.0,0.29659619317237546
930.0,0.29560309272526747
931.0,0.2942992496453144
932.0,0.29324670658187163
933.0,0.2918555287595286
934.0,0.2900751600823368
935.0,0.2910185248601038
936.0,0.2915623202832879
937.0,0.29175291133849307
938.0,0.2923713756726913
939.0,0.2934630016307221
940.0,0.2945144819823393
941.0,0.2947224084836464
942.0,0.2940239170978673
943.0,0.294098487937313
944.0,0.2944699776811704
945.0,0.29459771815624847
946.0,0.29428314424350815
947.0,0.2942435227451277
948.0,0.2940006950416969
949.0,0.29379917294502383
950.0,0.2940426469013811
951.0,0.29506662126268757
952.0,0.29522337216840044
953.0,0.2949864470562138
954.0,0.294984391263981
955.0,0.2950457716565891
956.0,0.2952863900875987
957.0,0.2960961058598052
958.0,0.29713448504128026
959.0,0.2969969415535464
960.0,0.2962943092589318
961.0,0.2962924832633819
962.0,0.2971979981310129
963.0,0.2976925144716805
964.0,0.29819841678861086
965.0,0.2986050561551554
966.0,0.29880217426473604
967.0,0.29880235646678666
968.0,0.29906727168958785
969.0,0.2994386724307276
970.0,0.2996052174096948
971.0,0.2993427954889143
972.0,0.29967192592830144
973.0,0.2996029653155523
974.0,0.29926283203117093
975.0,0.2996991134000999
976.0,0.2991217429341925
977.0,0.2988835717557681
978.0,0.2992863712708045
979.0,0.2996669962763463
980.0,0.30001648650727836
981.0,0.30000438090988246
982.0,0.29982466888946196
983.0,0.2998962787989863
984.0,0.30022240740419714
985.0,0.3006274092158349
986.0,0.30095607655740936
987.0,0.30110626413086294
988.0,0.3010566799838969
989.0,0.30101265769086294
990.0,0.3006176146861204
991.0,0.29988137126568765
992.0,0.30010489852036043
993.0,0.3006401839132389
994.0,0.3007487898937366
995.0,0.30039508591992786
996.0,0.30073002999408516
997.0,0.30106814455867015
998.0,0.3009082006987772
999.0,0.30051105526239696
1000.0,0.300837877473834
1001.0,0.3107401357877104
1002.0,0.31106581190697835
1003.0,0.3111836179961617
1004.0,0.31108156928126596
1005.0,0.31120188947111943
1006.0,0.3113839898771274
1007.0,0.31164417119365684
1008.0,0.31225081320323034
1009.0,0.312345340206867
1010.0,0.3121693566944183
1011.0,0.3122228792494997
1012.0,0.3118407174576645
1013.0,0.31164451174697083
1014.0,0.31219625328648165
1015.0,0.31241324382237345
1016.0,0.31243821503396596
1017.0,0.3124487683570851
1018.0,0.3124080545515822
1019.0,0.3119412475388031
1020.0,0.31187027362089076
1021.0,0.31193480830679
1022.0,0.3123461164260746
1023.0,0.3124633439837337
1024.0,0.3124808583509368
1025.0,0.3127366121025508
1026.0,0.31279154420057786
1027.0,0.31306233230499664
1028.0,0.31326898623215876
1029.0,0.31324918627466153
1030.0,0.31330614053129247
1031.0,0.3134225066612273
1032.0,0.3135451125158624
1033.0,0.31374564173670777
1034.0,0.31415003776760075
1035.0,0.31434268457165687
1036.0,0.3145290099542259
1037.0,0.31444591266959393
1038.0,0.3142863894059713
1039.0,0.3143601152325302
1040.0,0.31458277710397353
1041.0,0.31485576198338977
1042.0,0.3147659022368453
1043.0,0.31453980369131557
1044.0,0.3145109673145362
1045.0,0.31433016724453183
1046.0,0.314319936034527
1047.0,0.3147516352245179
1048.0,0.314943448446129
1049.0,0.314911201426441
1050.0,0.3150348937933359
1051.0,0.3153376693280191
1052.0,0.3155839907978577
1053.0,0.315335862432281
1054.0,0.3151256862471398
1055.0,0.31511820703727716
1056.0,0.31485975429753854
1057.0,0.31495630578810874
1058.0,0.31544502925168605
1059.0,0.31573002496325214
1060.0,0.31615229257477717
1061.0,0.3166528117796897
1062.0,0.3168028396944587
1063.0,0.3169638770481559
1064.0,0.31702344664621673
1065.0,0.3171354913687198
1066.0,0.317171031250924
1067.0,0.3175463409967482
1068.0,0.317971422075329
1069.0,0.317980701537033
1070.0,0.31795549155464575
1071.0,0.31790074736579654
1072.0,0.3179226553761085
1073.0,0.3180176365845219
1074.0,0.31812184966154866
1075.0,0.3182644292609076
1076.0,0.3180189643162663
1077.0,0.3179473451208514
1078.0,0.3180999427752927
1079.0,0.3184699875372151
1080.0,0.31858330705140064
1081.0,0.31886217292024527
1082.0,0.3192850006105476
1083.0,0.3193954345294147
1084.0,0.3194169207833057
1085.0,0.3195234585665548
1086.0,0.31937557841061115
1087.0,0.31934102086057664
1088.0,0.3194741309439736
1089.0,0.3195551748466028
1090.0,0.31973265850233396
1091.0,0.31967563913793295
1092.0,0.3197379912067719
1093.0,0.3200321953791014
1094.0,0.32010777826944536
1095.0,0.320099891846306
1096.0,0.32014629697388575
1097.0,0.32021754754523774
1098.0,0.32017143858356445
1099.0,0.3204238636335414
1100.0,0.3210045245092591
1101.0,0.3213387579389984
1102.0,0.32163555685211226
1103.0,0.3218710318941617
1104.0,0.32174551528912215
1105.0,0.3217937185664223
1106.0,0.3219816993209994
1107.0,0.3221168962035951
1108.0,0.32214779446581976
1109.0,0.32208534784842446
1110.0,0.32186017357479196
1111.0,0.32176837608456277
1112.0,0.32162663129813124
1113.0,0.3218731168516517
1114.0,0.321789714136378
1115.0,0.3220528038999973
1116.0,0.32261490722276515
1117.0,0.3223590473933975
1118.0,0.3228562737573802
1119.0,0.32345216654571585
1120.0,0.3231006684137461
1121.0,0.3235572974673906
1122.0,0.3236984846761932
1123.0,0.3230987129190155
1124.0,0.32310516671208234
1125.0,0.32295651006491377
1126.0,0.32289193126060234
1127.0,0.323261358238553
1128.0,0.3234420289572784
