Wavelength (nm),Reflectance
350.0,0.12927758967546127
351.0,0.12943942433814293
352.0,0.12954963601632805
353.0,0.12986501227170322
354.0,0.13014386489181537
355.0,0.1305965960304682
356.0,0.13121563486821677
357.0,0.1317694184185574
358.0,0.13231478857719348
359.0,0.13266243676575531
360.0,0.13288751641513957
361.0,0.1334710799744409
362.0,0.13403205278328614
363.0,0.13440916981848322
364.0,0.13468014225602712
365.0,0.13537990359257576
366.0,0.1359788519381164
367.0,0.13636974685513797
368.0,0.13672013719813267
369.0,0.13767760453144928
370.0,0.13834533197493556
371.0,0.1386247222768266
372.0,0.13903473785820525
373.0,0.1399731318913034
374.0,0.1407963216752003
375.0,0.14127078975095556
376.0,0.14178040216874585
377.0,0.14250779467038774
378.0,0.14305206727468622
379.0,0.14335890447079352
380.0,0.14430125212529568
381.0,0.1450965076707996
382.0,0.14580201854067074
383.0,0.1466181221090843
384.0,0.1472708328663752
385.0,0.1480423611359437
386.0,0.1488396267307118
387.0,0.14944806432863275
388.0,0.15014202817275313
389.0,0.15076514518515166
390.0,0.15129227024231479
391.0,0.1518397725476208
392.0,0.1526138953519485
393.0,0.15318278442872235
394.0,0.15353822312828277
395.0,0.15446214642366718
396.0,0.15525585997374422
397.0,0.15576266501798627
398.0,0.1561122173591012
399.0,0.15678545085279563
400.0,0.15717935487213616
401.0,0.1574416079598947
402.0,0.15793762511108614
403.0,0.15852139790001663
404.0,0.1590274515115176
405.0,0.15946094364833
406.0,0.15997089585200105
407.0,0.16059474055808381
408.0,0.16120665571482362
409.0,0.16173065315813084
410.0,0.16221603007048757
411.0,0.1626643889670449
412.0,0.16317656216832632
413.0,0.16378114809323538
414.0,0.16417876090304065
415.0,0.16473449585475258
416.0,0.16534907767038826
417.0,0.16574502525143261
418.0,0.1662475102598302
419.0,0.16682236355785904
420.0,0.16740824369719068
421.0,0.1679561827728992
422.0,0.1685891367739057
423.0,0.16923694127557104
424.0,0.16983292264916458
425.0,0.17038528962107172
426.0,0.17101773133826664
427.0,0.17169298353697426
428.0,0.17232381057958876
429.0,0.17290415665024228
430.0,0.17352738593347158
431.0,0.17421139985368353
432.0,0.1749102801465629
433.0,0.1756192252393031
434.0,0.17628908705040708
435.0,0.17689053429087861
436.0,0.17742028255662176
437.0,0.17804033207222758
438.0,0.17863675024089337
439.0,0.1791211937997265
440.0,0.17972055453163016
441.0,0.18033600135546238
442.0,0.18091091809688864
443.0,0.18143111341987098
444.0,0.18200281580542366
445.0,0.18252534857206393
446.0,0.18298798808105518
447.0,0.18349615317239393
448.0,0.18395019698933193
449.0,0.18439682652504638
450.0,0.1848622735302644
451.0,0.18524100006511487
452.0,0.18565318242078938
453.0,0.18607978091143967
454.0,0.18645570996082358
455.0,0.18680913219222944
456.0,0.1872144053895742
457.0,0.18764490890357555
458.0,0.1879846831286572
459.0,0.18832684459794505
460.0,0.18867864993851508
461.0,0.18902846271761223
462.0,0.1893524768407951
463.0,0.1897017080869071
464.0,0.19006623485375831
465.0,0.19041532216757268
466.0,0.19072611375671059
467.0,0.19107343287245185
468.0,0.1914555085895271
469.0,0.191810538756024
470.0,0.19220068732703446
471.0,0.1925695416296713
472.0,0.1929111872935819
473.0,0.19334183166544208
474.0,0.19368973914845636
475.0,0.19399957182596322
476.0,0.19435588492343592
477.0,0.19471091759774453
478.0,0.1950757879438901
479.0,0.19546319951252103
480.0,0.19587990438044403
481.0,0.1962795849375837
482.0,0.1966565962075311
483.0,0.19702417605409764
484.0,0.1974105600626994
485.0,0.1978225078831543
486.0,0.1982597415583097
487.0,0.19871544757861012
488.0,0.19917902487458036
489.0,0.19965711373190634
490.0,0.20009741335399078
491.0,0.20044310326517056
492.0,0.200877223708087
493.0,0.20135078879171142
494.0,0.2018126973170036
495.0,0.20225379998603585
496.0,0.20266869850117594
497.0,0.20309071717198607
498.0,0.20354500414051543
499.0,0.203976367844064
500.0,0.20442012574100263
501.0,0.2048938534233636
502.0,0.20539933270855262
503.0,0.20593405200885792
504.0,0.2064116026646805
505.0,0.20681891654543863
506.0,0.2072636514827837
507.0,0.20769282575530798
508.0,0.20812767769949903
509.0,0.20859201881668596
510.0,0.20905330922708032
511.0,0.20947204714233095
512.0,0.20989758404569014
513.0,0.21041555168324566
514.0,0.21085265472562928
515.0,0.2112655688676824
516.0,0.21170599221775852
517.0,0.21216424898151381
518.0,0.2126418662875071
519.0,0.2131104305210974
520.0,0.21354477566683042
521.0,0.21397793463547618
522.0,0.21438016310229532
523.0,0.21478420367110665
524.0,0.2152492225508609
525.0,0.21569607909205674
526.0,0.21607405727578263
527.0,0.21640775964714257
528.0,0.21684438493204053
529.0,0.21729755876940773
530.0,0.2177314871823881
531.0,0.21813964583404938
532.0,0.21853060848008754
533.0,0.21894449086597745
534.0,0.21937982321820101
535.0,0.21980513773577418
536.0,0.22021577119043917
537.0,0.22061158869762457
538.0,0.22100217250889692
539.0,0.22140100533622434
540.0,0.2217939710304845
541.0,0.222190315199837
542.0,0.22259137166950244
543.0,0.22291091804268426
544.0,0.22325874889077055
545.0,0.22363806910951264
546.0,0.22395420237855118
547.0,0.22427760943032618
548.0,0.22460513395085335
549.0,0.22493017505001328
550.0,0.22526637453507486
551.0,0.2256418715336148
552.0,0.22601517962636317
553.0,0.2263363726770535
554.0,0.22669676406619904
555.0,0.22706243566792803
556.0,0.2274229155410724
557.0,0.22780108352559653
558.0,0.22820416431845095
559.0,0.22860380392350463
560.0,0.2289570860555805
561.0,0.22920819834432093
562.0,0.22943635485042654
563.0,0.22966077204281957
564.0,0.22987549950628514
565.0,0.23012267012461574
566.0,0.23032470028733126
567.0,0.23051126998311225
568.0,0.2308584616928094
569.0,0.23120835191679076
570.0,0.2315460181723901
571.0,0.23188888665968058
572.0,0.2322531765010335
573.0,0.23260118080225903
574.0,0.23291585446932847
575.0,0.23319641608148803
576.0,0.2334555565422369
577.0,0.23374165753596174
578.0,0.23405625585815445
579.0,0.2343275981071625
580.0,0.23452144432814154
581.0,0.23471357754482283
582.0,0.23497111868089207
583.0,0.23519711837404356
584.0,0.23543385515971843
585.0,0.23564765257919806
586.0,0.23576816468066242
587.0,0.235971697245489
588.0,0.23621200672582754
589.0,0.23645893423916572
590.0,0.23677126989543237
591.0,0.23707922008373084
592.0,0.23734214549532096
593.0,0.23755081691400365
594.0,0.23772560630573528
595.0,0.23788431543206548
596.0,0.23804192470145033
597.0,0.238214521450112
598.0,0.23845299916669727
599.0,0.2386978956455701
600.0,0.23891063769935594
601.0,0.23914940520436903
602.0,0.2393568788183526
603.0,0.2395389225360708
604.0,0.23972239776562387
605.0,0.2398937154196933
606.0,0.24009161443986582
607.0,0.24031354873139418
608.0,0.24051319743000513
609.0,0.24073248956270493
610.0,0.2409338979777806
611.0,0.24109656610656585
612.0,0.2412850322920894
613.0,0.24150940440865631
614.0,0.24171981267518125
615.0,0.24185843658287043
616.0,0.24204773640977442
617.0,0.24225013725660757
618.0,0.2424363799042358
619.0,0.24261192859253566
620.0,0.24279857245977082
621.0,0.24299257900176371
622.0,0.2431844824277181
623.0,0.24337019545325894
624.0,0.24355207196498613
625.0,0.24375001852171332
626.0,0.2439828144707277
627.0,0.24417009290989913
628.0,0.24435112328517616
629.0,0.24454804128737065
630.0,0.24473470735955616
631.0,0.2449448655431188
632.0,0.24512719816357645
633.0,0.2452476547035782
634.0,0.24541833468698063
635.0,0.2456072574922308
636.0,0.24580194020558918
637.0,0.2460001194204943
638.0,0.24616837230837296
639.0,0.24632804668402983
640.0,0.2464937668884004
641.0,0.2466495635509584
642.0,0.24681948583318775
643.0,0.2469890486188443
644.0,0.2471447499425597
645.0,0.24732753661686777
646.0,0.24748526638093207
647.0,0.24762032225821928
648.0,0.2477828772220353
649.0,0.24799827098170513
650.0,0.24819173595181993
651.0,0.24832645213507368
652.0,0.24847687663071596
653.0,0.24863105540377736
654.0,0.24881718689479226
655.0,0.2490495915167956
656.0,0.24916150755015531
657.0,0.249338117392594
658.0,0.24956282380569755
659.0,0.24966970931212037
660.0,0.24978327419056454
661.0,0.24990723316403898
662.0,0.2500319856052794
663.0,0.25016578486729296
664.0,0.25033630279253105
665.0,0.2505278386163122
666.0,0.2507003694683118
667.0,0.250780294400992
668.0,0.25089086143834427
669.0,0.2510714064848613
670.0,0.25126601287811523
671.0,0.2514010339901604
672.0,0.2515211156929809
673.0,0.2516609886422742
674.0,0.25177432826923546
675.0,0.25187084867228227
676.0,0.25196400002111624
677.0,0.2520732367071951
678.0,0.2522376761579946
679.0,0.2523918505074141
680.0,0.2525083516253338
681.0,0.252608627846282
682.0,0.252751397364148
683.0,0.2528931367696814
684.0,0.2529983411409039
685.0,0.25311898511756264
686.0,0.2531211445722071
687.0,0.2531211859156381
688.0,0.25332600746424366
689.0,0.2534419131059406
690.0,0.2535331425992867
691.0,0.2536432601400802
692.0,0.2537546698963673
693.0,0.25390533585662234
694.0,0.254014027516027
695.0,0.2540507296633385
696.0,0.2541652358468234
697.0,0.2543026779507923
698.0,0.2544349991054974
699.0,0.25454686419310707
700.0,0.254664068625168
701.0,0.25473538318818534
702.0,0.2547867404616447
703.0,0.2549189049621302
704.0,0.2550418724589291
705.0,0.2551439925811078
706.0,0.25522673040049193
707.0,0.25527215037110357
708.0,0.2554016118338449
709.0,0.2555519747337046
710.0,0.2556210188324555
711.0,0.25573705081640014
712.0,0.2558449270519574
713.0,0.25593423677587185
714.0,0.25604407853722316
715.0,0.25616443998882454
716.0,0.25624667463335
717.0,0.2562832132385051
718.0,0.256380804060555
719.0,0.25649740072318145
720.0,0.256639623956844
721.0,0.2568095140207744
722.0,0.25695198429234894
723.0,0.2570392636143237
724.0,0.25710643161660035
725.0,0.25722623355426616
726.0,0.2573660193113735
727.0,0.2574743742797424
728.0,0.2575465515228756
729.0,0.2576529684580186
730.0,0.25778892220669475
731.0,0.25793321027748384
732.0,0.2580603783574677
733.0,0.2581586493770439
734.0,0.2582621342691368
735.0,0.2583863575705868
736.0,0.25852485083221205
737.0,0.2586282771968898
738.0,0.25870511638528015
739.0,0.25879232444599465
740.0,0.25895028391505864
741.0,0.25911493073242586
742.0,0.2592260594084661
743.0,0.2592704661335193
744.0,0.2593576644862448
745.0,0.2595497229843335
746.0,0.25977173550790233
747.0,0.2598956149082147
748.0,0.2599797746484273
749.0,0.26008615701757287
750.0,0.2602307366835822
751.0,0.2603749797741923
752.0,0.26050937293211257
753.0,0.26063482718245
754.0,0.2607593858485158
755.0,0.2608979739548072
756.0,0.26106120474417294
757.0,0.2612496354179505
758.0,0.2614210838815207
759.0,0.26125503158661534
760.0,0.2606975159100018
761.0,0.26011734070706405
762.0,0.26101484105229605
763.0,0.26131792314670294
764.0,0.26166171553036793
765.0,0.26220606405525
766.0,0.2625728339619027
767.0,0.26274173322660516
768.0,0.26285328463667745
769.0,0.2629853667940151
770.0,0.2630675775935044
771.0,0.2631780366863718
772.0,0.26331132246585737
773.0,0.26343059621594767
774.0,0.2635732473835682
775.0,0.2637227021987881
776.0,0.263857388323763
777.0,0.2639631629471661
778.0,0.2641097860029332
779.0,0.2642715752747507
780.0,0.26441168010206195
781.0,0.26450749323524253
782.0,0.2646269019115894
783.0,0.26476295898052327
784.0,0.2648885775681452
785.0,0.26499486157991303
786.0,0.2651700114841668
787.0,0.26536176655574045
788.0,0.2654601119091529
789.0,0.26561878804299116
790.0,0.26574990950565847
791.0,0.265830061771369
792.0,0.2659322243141144
793.0,0.2659962286562451
794.0,0.26612542766951147
795.0,0.2663442049146849
796.0,0.2664580727324316
797.0,0.26658302272219425
798.0,0.26670065182005465
799.0,0.266769861457946
800.0,0.2668011562525332
801.0,0.26691350799071695
802.0,0.2670981556776714
803.0,0.26725923183515404
804.0,0.26729136866051856
805.0,0.26734676028183346
806.0,0.2674601925630057
807.0,0.26753161193729097
808.0,0.2676796871746729
809.0,0.2678672118616283
810.0,0.26802751404931663
811.0,0.26809897489528695
812.0,0.26813660363672265
813.0,0.26820203204159293
814.0,0.2683233441647909
815.0,0.26839494898876515
816.0,0.2684776834897221
817.0,0.2685551900357038
818.0,0.2685972860484536
819.0,0.26870689010845417
820.0,0.2688759770848696
821.0,0.2690116325296724
822.0,0.26899167709575733
823.0,0.2689785971376111
824.0,0.26905019850340534
825.0,0.26919786187160244
826.0,0.26934688500896686
827.0,0.26943763785056235
828.0,0.2694647489511449
829.0,0.26946150354005605
830.0,0.2695143050241128
831.0,0.26963216525463113
832.0,0.2697378547457679
833.0,0.2697772406614201
834.0,0.26988931281360523
835.0,0.26995160485959274
836.0,0.269975124277492
837.0,0.27002673186894505
838.0,0.2700957986285512
839.0,0.27014791093673246
840.0,0.27015501001276343
841.0,0.27011980965813376
842.0,0.2702456996130505
843.0,0.270346499581007
844.0,0.2703651422298588
845.0,0.27045727458956265
846.0,0.27048399513267934
847.0,0.27058244105385787
848.0,0.27074648002689555
849.0,0.27059877896601486
850.0,0.2706309260428979
851.0,0.2708178782553804
852.0,0.27098020194572325
853.0,0.2709674336112405
854.0,0.2708708056279622
855.0,0.27087798091500737
856.0,0.2710955968234361
857.0,0.2712158448672798
858.0,0.271215853556906
859.0,0.271186552530739
860.0,0.27124961472004894
861.0,0.27131418035822075
862.0,0.27130722422078335
863.0,0.2712732380017561
864.0,0.2713249251175969
865.0,0.27125521528302055
866.0,0.2712566619008872
867.0,0.27135551686499976
868.0,0.27133271825801925
869.0,0.27135998458523064
870.0,0.2714352604449886
871.0,0.27152251369395386
872.0,0.2715783817488547
873.0,0.27153934615406544
874.0,0.2715345813264425
875.0,0.2716299668257228
876.0,0.27165762096853874
877.0,0.2715967653746327
878.0,0.2715471141675566
879.0,0.2715961444486396
880.0,0.2716758863979404
881.0,0.271751759479142
882.0,0.2718147559620709
883.0,0.2718681345012764
884.0,0.2718977850796597
885.0,0.27200011199912894
886.0,0.27216843043506517
887.0,0.27231221493415053
888.0,0.2722354139888022
889.0,0.27221146860131185
890.0,0.2722300493012284
891.0,0.2721447550775708
892.0,0.2722497267305794
893.0,0.2724358878137719
894.0,0.27254553141902793
895.0,0.27244360095677117
896.0,0.2723338002313658
897.0,0.2721708617504153
898.0,0.2719861190812445
899.0,0.27193106811896817
900.0,0.27223675657681723
901.0,0.27228252302141204
902.0,0.27204582624720297
903.0,0.2722054287839895
904.0,0.2724124482028077
905.0,0.2724404866000548
906.0,0.2723314411949627
907.0,0.27242964200723446
908.0,0.27212521522727867
909.0,0.27185284194258746
910.0,0.27184178127643654
911.0,0.27164437222782695
912.0,0.27176230418055997
913.0,0.27189312409402183
914.0,0.2718219396133316
915.0,0.2717914799745691
916.0,0.2716852314126358
917.0,0.27169153483243463
918.0,0.27185701386287264
919.0,0.27186925023553343
920.0,0.2720248041288898
921.0,0.27228243435762534
922.0,0.2724611394514362
923.0,0.2722711920925061
924.0,0.27220418732251245
925.0,0.27216418786714824
926.0,0.2720401533496376
927.0,0.2721193880961966
928.0,0.2715956657362696
929.0,0.27076553886398735
930.0,0.26996829753085205
931.0,0.26837789588673944
932.0,0.2666236125631183
933.0,0.26525085199909665
934.0,0.26437083197906236
935.0,0.26277407259243024
936.0,0.26339196349171956
937.0,0.265191255801361
938.0,0.2665260175207118
939.0,0.2671856026816299
940.0,0.26791428945326995
941.0,0.2685901161541558
942.0,0.268781077416881
943.0,0.2678106241273461
944.0,0.2675513642680816
945.0,0.26729096988696094
946.0,0.26650855953673397
947.0,0.26703346407367917
948.0,0.2668836632348176
949.0,0.26671399439298726
950.0,0.2671961099385557
951.0,0.2676505232336997
952.0,0.2681200127489372
953.0,0.26841427348254787
954.0,0.26834787213981365
955.0,0.26783905841369376
956.0,0.26791009087100365
957.0,0.2683578967881409
958.0,0.2686810991069342
959.0,0.26849041626226117
960.0,0.2685159780377276
961.0,0.2689082045028225
962.0,0.26961456030636827
963.0,0.27045358022256744
964.0,0.27078633326238394
965.0,0.2707322704774132
966.0,0.27062776650765524
967.0,0.27084297464600215
968.0,0.2716788902108681
969.0,0.2722425418353408
970.0,0.2723186638701341
971.0,0.27248075933292426
972.0,0.27224695998153975
973.0,0.271941301243554
974.0,0.271950390600187
975.0,0.2723827028394508
976.0,0.2717405739728743
977.0,0.27144763797333665
978.0,0.2716666473098438
979.0,0.2716054148155116
980.0,0.2718155934526448
981.0,0.27255805833043045
982.0,0.27261898779050125
983.0,0.2711458905538637
984.0,0.2720183790370476
985.0,0.2726181981942284
986.0,0.27239794614547885
987.0,0.2720339801416601
988.0,0.272647206377184
989.0,0.2728356637413155
990.0,0.2725166500318674
991.0,0.27212635274342495
992.0,0.2721154359415344
993.0,0.2711799240646335
994.0,0.271206532052513
995.0,0.27262702444587383
996.0,0.2720466299934969
997.0,0.27206596472175887
998.0,0.271767032813822
999.0,0.27098984706833396
1000.0,0.2712137078039773
1001.0,0.28180936093738673
1002.0,0.28208002245945535
1003.0,0.28221688559639685
1004.0,0.2823680798013066
1005.0,0.2823625097550144
1006.0,0.28214213144397304
1007.0,0.28208728760151147
1008.0,0.28201976562662845
1009.0,0.281864132413999
1010.0,0.28193746889380683
1011.0,0.28237586813966237
1012.0,0.2825308469885242
1013.0,0.28255304057900543
1014.0,0.28259781042439486
1015.0,0.2823344475656444
1016.0,0.2822169296797568
1017.0,0.2820977964768505
1018.0,0.2821466809265694
1019.0,0.2822621722538378
1020.0,0.28240059944636225
1021.0,0.2827309776701653
1022.0,0.2828234454635434
1023.0,0.28293501896567497
1024.0,0.28291951250091396
1025.0,0.28283628435463726
1026.0,0.28261954773324494
1027.0,0.2825612013329188
1028.0,0.28275932584137053
1029.0,0.28271575589011505
1030.0,0.28297053687678303
1031.0,0.28315522327027093
1032.0,0.2832314225042915
1033.0,0.2832462895135585
1034.0,0.2833737414687842
1035.0,0.2833664256873127
1036.0,0.28323031569167767
1037.0,0.28289755310146386
1038.0,0.2827735679916217
1039.0,0.28293599880534576
1040.0,0.2829181409649716
1041.0,0.28295349238447237
1042.0,0.28308836720754793
1043.0,0.28314628706544054
1044.0,0.28317492926829113
1045.0,0.2835657497684031
1046.0,0.28382760040513966
1047.0,0.2842048915260967
1048.0,0.2842336334783241
1049.0,0.2840120958798833
1050.0,0.2838841373892258
1051.0,0.2835248925645892
1052.0,0.28355864191759594
1053.0,0.2837292905922912
1054.0,0.2838222146520049
1055.0,0.28404674395824403
1056.0,0.28420281141091125
1057.0,0.28429464480961547
1058.0,0.2845413995457633
1059.0,0.2848627573667996
1060.0,0.2848369263817682
1061.0,0.2846185720735888
1062.0,0.28448905905868355
1063.0,0.28441503122168904
1064.0,0.2842070561406667
1065.0,0.2843404065518281
1066.0,0.2847339819711269
1067.0,0.2849721619463064
1068.0,0.28514380381441545
1069.0,0.2852515621892711
1070.0,0.28523285838689627
1071.0,0.28522383634051723
1072.0,0.28517707472627735
1073.0,0.2852066106224894
1074.0,0.2854976602056161
1075.0,0.28560662786613566
1076.0,0.2856558450555802
1077.0,0.2855948864331892
1078.0,0.2855139329336136
1079.0,0.28512171576225515
1080.0,0.28525828552018184
1081.0,0.2853977215594346
1082.0,0.2853685548596589
1083.0,0.28549076463332784
1084.0,0.2851820847810206
1085.0,0.2850448307928638
1086.0,0.285325759762049
1087.0,0.28566771280277664
1088.0,0.2859791814275139
1089.0,0.28624729181759584
1090.0,0.2865347581019519
1091.0,0.28664017365251304
1092.0,0.28686936945743385
1093.0,0.2871492208647158
1094.0,0.2872096343870287
1095.0,0.28710247297606256
1096.0,0.28707288900213834
1097.0,0.28691362438548257
1098.0,0.28671711642420605
1099.0,0.28689963158911497
1100.0,0.2870430393238825
1101.0,0.2871275313462557
1102.0,0.2872178249291628
1103.0,0.2869807454216589
1104.0,0.286856664070208
1105.0,0.2868592654291529
1106.0,0.28695092932631583
1107.0,0.2872458645065761
1108.0,0.28736369235621545
1109.0,0.2876476868277518
1110.0,0.2879599991306098
1111.0,0.2881132402251811
1112.0,0.288108749529644
1113.0,0.2883706187714015
1114.0,0.2885903440905438
1115.0,0.2885760022325137
1116.0,0.2885652801625255
1117.0,0.2884289451205911
1118.0,0.28797644783378584
1119.0,0.2875945529669888
1120.0,0.2875043075980326
1121.0,0.287315392914132
1122.0,0.28698125876490665
1123.0,0.28651314358614294
1124.0,0.286498700302036
1125.0,0.28691150407688726
1126.0,0.2871762871819524
1127.0,0.2879556021732195
