Wavelength (nm),Reflectance
350.0,0.12581936836843663
351.0,0.1264212880347299
352.0,0.12698776570364625
353.0,0.12686291041759587
354.0,0.12712024888084647
355.0,0.12757188844318648
356.0,0.12808132984493614
357.0,0.1286483118431453
358.0,0.12905441051044264
359.0,0.12959296722108316
360.0,0.13031877060238628
361.0,0.13083520025169912
362.0,0.13130402308622724
363.0,0.13173765740260426
364.0,0.13215012884731855
365.0,0.1326200091329127
366.0,0.13321989948661223
367.0,0.133732847939931
368.0,0.13402264582410686
369.0,0.13478496762437378
370.0,0.13548128174699453
371.0,0.13593931416069155
372.0,0.13633652322642043
373.0,0.13719767778993924
374.0,0.13800805769659488
375.0,0.1385508175526334
376.0,0.13909692850626135
377.0,0.13982856734715532
378.0,0.1403042281396801
379.0,0.1405394986793075
380.0,0.14172732018626155
381.0,0.14241087444476486
382.0,0.1430086554484905
383.0,0.14410817269588558
384.0,0.14463352048681086
385.0,0.14549166189391466
386.0,0.14644975907108396
387.0,0.1469008844774979
388.0,0.14776862174855368
389.0,0.14838108495684102
390.0,0.14875077560475444
391.0,0.14953649200069583
392.0,0.15040133691555474
393.0,0.15117817395743566
394.0,0.15188646004292009
395.0,0.1527959923227098
396.0,0.1534299035375165
397.0,0.1539449952998745
398.0,0.15454012674870782
399.0,0.15514277650792127
400.0,0.1555000511739256
401.0,0.15584552657301587
402.0,0.156478475942779
403.0,0.15697629014154865
404.0,0.1575264157056811
405.0,0.15815257193837787
406.0,0.15871604330977032
407.0,0.15927298623881006
408.0,0.1598739271934291
409.0,0.16048247332938712
410.0,0.16091406855525867
411.0,0.16141379948192755
412.0,0.1619997863508943
413.0,0.16260304800802985
414.0,0.16308469241516638
415.0,0.16362468428741023
416.0,0.1642172102866811
417.0,0.16476127690751516
418.0,0.16523918751951963
419.0,0.16582209393202013
420.0,0.16649438417376247
421.0,0.16703745338326073
422.0,0.16766051538835633
423.0,0.16828974121667997
424.0,0.16886466036798164
425.0,0.16946187708651267
426.0,0.17013176403841251
427.0,0.1708320124292493
428.0,0.1714918233591434
429.0,0.17209294734769523
430.0,0.1727788745250782
431.0,0.17353209920752408
432.0,0.17422386192336264
433.0,0.1749693680489135
434.0,0.17565418940190872
435.0,0.1762400957324941
436.0,0.17682769463661385
437.0,0.1774407170536973
438.0,0.17804348283605181
439.0,0.17861375001609253
440.0,0.17922888588919683
441.0,0.17989772911643498
442.0,0.1805388616650226
443.0,0.18106068874441522
444.0,0.181639794492876
445.0,0.18218611344796135
446.0,0.18268192361712693
447.0,0.18321302726763875
448.0,0.1837125589133332
449.0,0.18416374005517747
450.0,0.18457943105209018
451.0,0.18501991371354756
452.0,0.1854547662768266
453.0,0.18586380499412072
454.0,0.1862406115641755
455.0,0.18662875582553803
456.0,0.18707336444062192
457.0,0.18753575977947348
458.0,0.18790602131815676
459.0,0.18823645069677136
460.0,0.18857856422541752
461.0,0.18894823410456685
462.0,0.18928339322200732
463.0,0.18964736553129877
464.0,0.19000895575795188
465.0,0.19033109696620137
466.0,0.1907099038076443
467.0,0.1910750000805036
468.0,0.19142441575311475
469.0,0.19181374457486022
470.0,0.19221934900329568
471.0,0.19261291323984975
472.0,0.19298853422403256
473.0,0.19338142354736518
474.0,0.1937509240908798
475.0,0.19409617345659874
476.0,0.19444336372547305
477.0,0.19486810078960926
478.0,0.19528584739181087
479.0,0.19567802399077036
480.0,0.19607586697366955
481.0,0.1964929385843766
482.0,0.1968740678953878
483.0,0.1972355297896454
484.0,0.19772211194781708
485.0,0.19820639324908346
486.0,0.19868775754285958
487.0,0.19918062754907256
488.0,0.19960447280911264
489.0,0.20005980453753205
490.0,0.20051965927592486
491.0,0.2009006820769133
492.0,0.20135356997720613
493.0,0.2018597159905298
494.0,0.20236327315858144
495.0,0.20278531684767126
496.0,0.20322010725295497
497.0,0.2036858353812135
498.0,0.20417978548004
499.0,0.20470553226817811
500.0,0.2051657379427592
501.0,0.20561731833224384
502.0,0.2061945831209761
503.0,0.20673748745000622
504.0,0.20720565477688163
505.0,0.20764077123178948
506.0,0.2081820964018518
507.0,0.20867867804718176
508.0,0.2091475569588786
509.0,0.20963137658577694
510.0,0.21008550291896838
511.0,0.2105428196985388
512.0,0.21101898216791914
513.0,0.21151487197105565
514.0,0.21200917102084837
515.0,0.21248224300613996
516.0,0.21294255149705932
517.0,0.21344185278984387
518.0,0.21395256344138472
519.0,0.21442848242122772
520.0,0.21484760124609667
521.0,0.21529958233077992
522.0,0.2157712538966871
523.0,0.21624177199662195
524.0,0.21668910999860902
525.0,0.21716611491929605
526.0,0.217628744319709
527.0,0.2180549009412389
528.0,0.21848594044753072
529.0,0.21893101591990322
530.0,0.21938333865524592
531.0,0.21983841322792527
532.0,0.22029199485736384
533.0,0.2207429705693996
534.0,0.22118971197853748
535.0,0.22163485602112554
536.0,0.2220957027801018
537.0,0.22252523008467626
538.0,0.22292204757706682
539.0,0.22337792013082144
540.0,0.22382978342473106
541.0,0.2242637068119813
542.0,0.22467932741378768
543.0,0.2250484350514533
544.0,0.22542216936745407
545.0,0.22581099766841575
546.0,0.22618439253084865
547.0,0.2265661163528442
548.0,0.22694774138362814
549.0,0.2273244017605262
550.0,0.22771218424503004
551.0,0.22812698449813043
552.0,0.22854132396337842
553.0,0.22891864115497487
554.0,0.22929153530967264
555.0,0.22969315346022326
556.0,0.23011713018582874
557.0,0.23051582278630015
558.0,0.2309051271118013
559.0,0.2312859428443093
560.0,0.23164992942196533
561.0,0.23197919396639283
562.0,0.23225111518266886
563.0,0.2325311288886041
564.0,0.23289774918275047
565.0,0.23320278681712103
566.0,0.23346107312338385
567.0,0.23373299212283222
568.0,0.2341146747560502
569.0,0.23449522470678058
570.0,0.234831171982881
571.0,0.23511905105613945
572.0,0.23542866119394676
573.0,0.23576514989483552
574.0,0.23610053189829308
575.0,0.2363937283905667
576.0,0.23667868958135554
577.0,0.23697205458275303
578.0,0.23727423418319138
579.0,0.23756675858587423
580.0,0.23778808183667027
581.0,0.2380262249934972
582.0,0.23835737569607096
583.0,0.2386507273142867
584.0,0.23891382368715566
585.0,0.23914545603915963
586.0,0.23934784298763476
587.0,0.23963957064907623
588.0,0.2399602237667776
589.0,0.24026260649908343
590.0,0.24056991156812946
591.0,0.24083608211569238
592.0,0.24109180965948004
593.0,0.2413731778096154
594.0,0.24157918434088624
595.0,0.24174521498803467
596.0,0.2419211554293388
597.0,0.2421622313371223
598.0,0.2424497772776591
599.0,0.24270222230021704
600.0,0.24289559526240434
601.0,0.24316037896284654
602.0,0.24343509316857556
603.0,0.2436889128237285
604.0,0.2439074134859393
605.0,0.2441013266775308
606.0,0.24432418834221142
607.0,0.24457470459217454
608.0,0.24479498577642853
609.0,0.24504847167212718
610.0,0.24529551523621357
611.0,0.24550529780233313
612.0,0.24572431307202028
613.0,0.24600176906417034
614.0,0.2462631062958638
615.0,0.2464076887889777
616.0,0.2466254128983999
617.0,0.24683918585854242
618.0,0.24702381793256928
619.0,0.24725150401798363
620.0,0.24750234009000713
621.0,0.24773727219112923
622.0,0.24793173327114998
623.0,0.24812256526566348
624.0,0.2483229650512876
625.0,0.2485562000792697
626.0,0.24882945903646994
627.0,0.24897909198543966
628.0,0.24914163016661817
629.0,0.24938156795085462
630.0,0.24959950374726944
631.0,0.2498345261175234
632.0,0.2500392539399943
633.0,0.2501836089404817
634.0,0.2503746829961672
635.0,0.2506064249425698
636.0,0.25084337694858794
637.0,0.25103878678798625
638.0,0.2512667183118203
639.0,0.2514781253862609
640.0,0.2516515134609675
641.0,0.2518341912308298
642.0,0.2520378072901383
643.0,0.25225152551498486
644.0,0.252457908696868
645.0,0.2526488493085336
646.0,0.2527951993866763
647.0,0.25292375114275
648.0,0.253104012776188
649.0,0.2533155734096005
650.0,0.25352939193182444
651.0,0.2537233424178322
652.0,0.2538988440578227
653.0,0.25408562252950717
654.0,0.2543050949503227
655.0,0.254556405987227
656.0,0.2546991481572574
657.0,0.2548770142397817
658.0,0.25509253962106315
659.0,0.2552465311785356
660.0,0.2554009591010888
661.0,0.2555750588590997
662.0,0.2557608242623002
663.0,0.25591357320024294
664.0,0.2560901607408179
665.0,0.2562792166454816
666.0,0.2564524663289622
667.0,0.25663824617595477
668.0,0.2567972496786439
669.0,0.2569478831139057
670.0,0.25716349600439153
671.0,0.2573544086293028
672.0,0.25751400758482285
673.0,0.25765389251666365
674.0,0.2577964082108792
675.0,0.2578816180246671
676.0,0.25797695984835606
677.0,0.2581775004354516
678.0,0.2584261261030234
679.0,0.25859750132785264
680.0,0.2586887369838236
681.0,0.2588246273805522
682.0,0.25900463021968634
683.0,0.25918478467099154
684.0,0.259330636069067
685.0,0.2594705712196746
686.0,0.2595123755932152
687.0,0.2595134691232215
688.0,0.25960715219518454
689.0,0.2597790993780962
690.0,0.25995487934074746
691.0,0.26011241317115896
692.0,0.26026395683764303
693.0,0.26043995687348237
694.0,0.26059251958381197
695.0,0.2606970165777105
696.0,0.26082375467709934
697.0,0.2610028511054744
698.0,0.2611793191396456
699.0,0.2612901451544358
700.0,0.2614738409679838
701.0,0.2616036094857089
702.0,0.2616745220099888
703.0,0.2618188952098649
704.0,0.26199878207092525
705.0,0.2621317831445991
706.0,0.2621924134099238
707.0,0.2622929716552997
708.0,0.2624508813990554
709.0,0.2626248881889983
710.0,0.2627576084972748
711.0,0.2628691917375593
712.0,0.26302235314648886
713.0,0.2631918811187662
714.0,0.26327768067015445
715.0,0.2634167063495343
716.0,0.26351787968609874
717.0,0.2635362249286125
718.0,0.2636359688323437
719.0,0.2637769953204936
720.0,0.26394892657011104
721.0,0.26414075231248696
722.0,0.2643532954073894
723.0,0.26448505368336184
724.0,0.26455838881900623
725.0,0.26468266609811236
726.0,0.26484439081868816
727.0,0.26499727919961447
728.0,0.2651272255143476
729.0,0.2652746262303354
730.0,0.2654292803762069
731.0,0.2656066744021333
732.0,0.26581134795847355
733.0,0.2660006485944786
734.0,0.26612399290406047
735.0,0.2662360232008035
736.0,0.2664326243107975
737.0,0.2665674544608206
738.0,0.26670672497412895
739.0,0.26687985013728877
740.0,0.26701971112494016
741.0,0.2671884910039908
742.0,0.26735453977204454
743.0,0.2674789150715471
744.0,0.26756849163000956
745.0,0.2677630799738761
746.0,0.268006380655894
747.0,0.2681595077802241
748.0,0.2682963832628248
749.0,0.26844800619314224
750.0,0.26861567079993803
751.0,0.2687709784338551
752.0,0.26895896909198147
753.0,0.2691357169846284
754.0,0.26928033932688417
755.0,0.2694637737163016
756.0,0.269688550331461
757.0,0.2699241018236026
758.0,0.27008725159358965
759.0,0.26978227123461856
760.0,0.268883280998515
761.0,0.2678206713226269
762.0,0.26887159033329033
763.0,0.2693605535440087
764.0,0.26987454073903905
765.0,0.2706094184856298
766.0,0.27125399829761476
767.0,0.27154087064310756
768.0,0.27172791549426095
769.0,0.2719714592520216
770.0,0.2721143730239663
771.0,0.27224990395302584
772.0,0.27239859668090327
773.0,0.2725517936249457
774.0,0.2727342876205934
775.0,0.2729125697397612
776.0,0.2730689841550004
777.0,0.2732127002268651
778.0,0.2733781655696229
779.0,0.27356296096321603
780.0,0.2737418853436224
781.0,0.2738607471803786
782.0,0.27401174658348276
783.0,0.27418160477215014
784.0,0.2743363902702611
785.0,0.27450320416640606
786.0,0.2746724022388167
787.0,0.27483833505425814
788.0,0.27499791320761857
789.0,0.2751542306149456
790.0,0.2753125326918098
791.0,0.27545896790004815
792.0,0.27556299214694824
793.0,0.2756661914827404
794.0,0.2758393759884181
795.0,0.27607923814523716
796.0,0.2762305725733181
797.0,0.27633477557902836
798.0,0.276461820874227
799.0,0.27663992177364904
800.0,0.27667740247902317
801.0,0.2768146141600933
802.0,0.2770200551195865
803.0,0.2771207025061732
804.0,0.277179761364157
805.0,0.27731015693994615
806.0,0.2774970006464072
807.0,0.277605409307595
808.0,0.27776597738815506
809.0,0.27797448803169217
810.0,0.27816790230549715
811.0,0.27822522184719456
812.0,0.2783310677490332
813.0,0.27841403459110603
814.0,0.2783893045466808
815.0,0.27841697678994226
816.0,0.27849632786982853
817.0,0.2786193014629245
818.0,0.27875829806985697
819.0,0.2788365525522374
820.0,0.27900521778489473
821.0,0.2791883286000114
822.0,0.27917473143545823
823.0,0.2792164226222064
824.0,0.27932539402285544
825.0,0.2794960985932232
826.0,0.2797600407012495
827.0,0.27986315676131845
828.0,0.2798662446228772
829.0,0.27988813937365453
830.0,0.2800157695323477
831.0,0.28012810548157646
832.0,0.2802147657977937
833.0,0.28030246618463556
834.0,0.2804147343012938
835.0,0.28054702068998505
836.0,0.2806613041332929
837.0,0.2807336446073584
838.0,0.2809128251837312
839.0,0.280962255071509
840.0,0.2809197388904043
841.0,0.28103006953975246
842.0,0.2811723289111211
843.0,0.2812338493112373
844.0,0.28124530330244857
845.0,0.28139561899518695
846.0,0.2814228168450459
847.0,0.2815228999713001
848.0,0.28173444889241267
849.0,0.28163173669667246
850.0,0.2815987467266559
851.0,0.2816954257698179
852.0,0.28185566536858236
853.0,0.2819503536171597
854.0,0.2819854062175507
855.0,0.2820353113940324
856.0,0.2821625148549002
857.0,0.2822668280218964
858.0,0.2822821674193298
859.0,0.28230282173866805
860.0,0.2824555691702922
861.0,0.2825133877344811
862.0,0.2824578723247233
863.0,0.28242087651633374
864.0,0.28258667301690243
865.0,0.2825469903867488
866.0,0.2825717432253379
867.0,0.2827082598596338
868.0,0.28265641661718266
869.0,0.2826752849540587
870.0,0.28277986070361716
871.0,0.28291707816075345
872.0,0.28299561985652294
873.0,0.28289122675466327
874.0,0.2828918580671891
875.0,0.2831032225599974
876.0,0.2830248529555371
877.0,0.28299362427884966
878.0,0.28307755969775694
879.0,0.28322013150178976
880.0,0.28323644289009886
881.0,0.2833077078380645
882.0,0.28338114948638377
883.0,0.2833794146496338
884.0,0.283490683965407
885.0,0.2835578429040278
886.0,0.28359995242183356
887.0,0.28369579965119973
888.0,0.28374006610625596
889.0,0.2837978464009805
890.0,0.28383119192691125
891.0,0.2837801516346351
892.0,0.2838892473712787
893.0,0.2840554431121549
894.0,0.28404726192277047
895.0,0.28364764742512333
896.0,0.28349175078743616
897.0,0.283408647736483
898.0,0.2832997185271072
899.0,0.2832705646055137
900.0,0.2835814855592081
901.0,0.2836721443426197
902.0,0.2835013499624368
903.0,0.28364678901854107
904.0,0.283686247504038
905.0,0.2836598547053984
906.0,0.28364220410480195
907.0,0.2836553398797664
908.0,0.2833627674594827
909.0,0.28319290922798096
910.0,0.28329820574983716
911.0,0.2831469467796933
912.0,0.2831790798990356
913.0,0.2832938751213329
914.0,0.2833814971905951
915.0,0.2835171811379822
916.0,0.2832676080930167
917.0,0.2830967291124885
918.0,0.2832933878544285
919.0,0.28343953932424715
920.0,0.2837134540632453
921.0,0.28408747978452875
922.0,0.28436431805753704
923.0,0.2841034993290452
924.0,0.2839116847919925
925.0,0.28379845108725205
926.0,0.2836230648448943
927.0,0.2833188515200005
928.0,0.2826659828833211
929.0,0.281690239044698
930.0,0.2804224185773801
931.0,0.27864102048498746
932.0,0.27678538409780973
933.0,0.2751238169960167
934.0,0.2737475394191316
935.0,0.2723475847490835
936.0,0.27313900262525836
937.0,0.2747728438753448
938.0,0.2757703930807674
939.0,0.27665380558836083
940.0,0.27716978002163883
941.0,0.2777842422887684
942.0,0.27847086682085165
943.0,0.27769340787171115
944.0,0.2768374698447434
945.0,0.27631891244991924
946.0,0.27617987590597315
947.0,0.27629238181198196
948.0,0.27620849094902694
949.0,0.2763581586171715
950.0,0.2768529446416696
951.0,0.27673932618256536
952.0,0.27746528966368855
953.0,0.27817620033806245
954.0,0.2780868017543111
955.0,0.27763991357205636
956.0,0.2778219365748286
957.0,0.2782513472900794
958.0,0.2786221808107529
959.0,0.2792796603856763
960.0,0.279402592257072
961.0,0.2797054240970395
962.0,0.2804273432998259
963.0,0.28080444806456034
964.0,0.2816114017216512
965.0,0.28199140968270947
966.0,0.2819414290719988
967.0,0.2825761254093127
968.0,0.28326236606837063
969.0,0.2836255510851742
970.0,0.2835896243071867
971.0,0.2834136386575693
972.0,0.283848484893684
973.0,0.28391198319305705
974.0,0.28363915953704827
975.0,0.2839411175941254
976.0,0.2834155272129459
977.0,0.28307684002032907
978.0,0.28321402895355474
979.0,0.28346172352884025
980.0,0.28411800692481537
981.0,0.28438560111924316
982.0,0.284104190902179
983.0,0.2836923828713905
984.0,0.2840291164509327
985.0,0.2845866976237217
986.0,0.28494251807933146
987.0,0.2848714145250559
988.0,0.28450641583355135
989.0,0.28402996993290536
990.0,0.28427737933954816
991.0,0.2852540229386792
992.0,0.28460158191287127
993.0,0.28410994461473754
994.0,0.2843123989650646
995.0,0.28482688686845664
996.0,0.2844217006969006
997.0,0.28432190437392996
998.0,0.28410071704919526
999.0,0.28373439409065143
1000.0,0.2839805658337241
1001.0,0.2969944170638742
1002.0,0.29706583972302314
1003.0,0.2972180831357692
1004.0,0.29739799680332535
1005.0,0.29752849048155255
1006.0,0.29773736552264446
1007.0,0.2978474351543096
1008.0,0.2978471273833417
1009.0,0.2978025225413116
1010.0,0.2976955413115958
1011.0,0.29796627714613166
1012.0,0.2981823133912069
1013.0,0.29797011937909684
1014.0,0.29797018769213357
1015.0,0.2981102823369542
1016.0,0.2981743425107549
1017.0,0.29827963815002495
1018.0,0.29841357977288213
1019.0,0.2984907064993421
1020.0,0.2985457922809042
1021.0,0.2985962216137899
1022.0,0.2986858525833808
1023.0,0.29878124111699145
1024.0,0.2988552373689702
1025.0,0.2987892735998049
1026.0,0.29850013159476246
1027.0,0.2983335848862767
1028.0,0.29852894890403386
1029.0,0.29867752555737254
1030.0,0.2990208043223241
1031.0,0.2991531649540737
1032.0,0.2989957747227103
1033.0,0.2989325441814245
1034.0,0.2988784952501006
1035.0,0.2988948394183891
1036.0,0.2989654006956447
1037.0,0.2990140157005963
1038.0,0.2989272830150587
1039.0,0.29893098122999207
1040.0,0.29881217042665237
1041.0,0.2987155996277235
1042.0,0.29910452844098995
1043.0,0.2993001820073234
1044.0,0.2994064888949249
1045.0,0.29998004899634895
1046.0,0.30025432726233
1047.0,0.30044190503829976
1048.0,0.300492918924052
1049.0,0.3003811503771611
1050.0,0.30020946736643417
1051.0,0.29980561048801546
1052.0,0.29967857398399317
1053.0,0.2997677274699098
1054.0,0.29985117899577257
1055.0,0.3002011583788124
1056.0,0.3004816467762722
1057.0,0.3005221937597522
1058.0,0.3006993229288985
1059.0,0.3009669659067662
1060.0,0.3010606088727507
1061.0,0.30109897112631745
1062.0,0.30124908118797544
1063.0,0.30127122220436997
1064.0,0.30113318418977786
1065.0,0.3010134780612222
1066.0,0.30112234984672387
1067.0,0.3011795551423701
1068.0,0.30112078346593685
1069.0,0.3013825249937907
1070.0,0.30163538047238797
1071.0,0.30159376661057175
1072.0,0.3017516611902545
1073.0,0.3019390464557506
1074.0,0.30213592923874405
1075.0,0.30236472522352975
1076.0,0.3023798310713073
1077.0,0.302257359419928
1078.0,0.3021482039173157
1079.0,0.3018332009644154
1080.0,0.3017608680836909
1081.0,0.30190691329489705
1082.0,0.30198009819759336
1083.0,0.3021082916364003
1084.0,0.30215582961287724
1085.0,0.3022589491069699
1086.0,0.3024514705841183
1087.0,0.30262557062678735
1088.0,0.302788887741126
1089.0,0.3029133771246359
1090.0,0.3031191411270628
1091.0,0.30336047160026897
1092.0,0.3037172779924468
1093.0,0.3039406210959724
1094.0,0.3039445035923972
1095.0,0.303746555315892
1096.0,0.3036096045992161
1097.0,0.30333724484721086
1098.0,0.3031454048004315
1099.0,0.3034601608502213
1100.0,0.3037125311721911
1101.0,0.3038255409907531
1102.0,0.30405194011762915
1103.0,0.30376959181376145
1104.0,0.303588464887196
1105.0,0.3038075526377816
1106.0,0.30394922106135025
1107.0,0.30428027155244114
1108.0,0.3044640288710016
1109.0,0.3046486352065122
1110.0,0.3048819314565494
1111.0,0.3049969037468726
1112.0,0.30504508431289057
1113.0,0.30532455551776405
1114.0,0.30519195972761526
1115.0,0.3048577191148855
1116.0,0.30495410891718533
1117.0,0.30495617851557044
1118.0,0.30475116640372607
1119.0,0.30469563402253813
1120.0,0.30448528303395506
1121.0,0.3036282048415297
1122.0,0.30330461367084005
1123.0,0.30341950275044094
1124.0,0.3034851806936243
1125.0,0.30375961560898673
1126.0,0.3038010441998603
1127.0,0.3037981027908279
