Wavelength (nm),Reflectance
350.0,0.1293001820525933
351.0,0.12934977021748204
352.0,0.12960327139767186
353.0,0.13006718114687763
354.0,0.13075781561382233
355.0,0.13121998630292317
356.0,0.13150536856074146
357.0,0.13211539081712284
358.0,0.1327328506052702
359.0,0.1330913099463356
360.0,0.13328518631348088
361.0,0.13388966002114588
362.0,0.13453433325596253
363.0,0.13486390497716322
364.0,0.1349485243399331
365.0,0.1359072990905518
366.0,0.13651452978811016
367.0,0.13683109844698452
368.0,0.13731537895638754
369.0,0.13793525305819193
370.0,0.13848819531315376
371.0,0.13898289508251646
372.0,0.13958153625272615
373.0,0.1403678142809401
374.0,0.1411207415657959
375.0,0.14168415172676208
376.0,0.14204949915333928
377.0,0.14269663695019252
378.0,0.14332492945925887
379.0,0.1438067753789923
380.0,0.14467563505107925
381.0,0.14543889975798335
382.0,0.14612981648049278
383.0,0.14688664171944413
384.0,0.14759228978074748
385.0,0.1485047428938539
386.0,0.14937192120772583
387.0,0.14982778079887668
388.0,0.150390575341344
389.0,0.15104398455567766
390.0,0.15171156189758664
391.0,0.152310518159746
392.0,0.1530921038449593
393.0,0.1536835793498431
394.0,0.15412585625408526
395.0,0.15523694174139746
396.0,0.15591905219397387
397.0,0.15624469355309564
398.0,0.15659340045618933
399.0,0.1573761646653584
400.0,0.15784842519089365
401.0,0.1581284885960331
402.0,0.15859332351207453
403.0,0.15900757072798352
404.0,0.15955275083890055
405.0,0.16021104341755177
406.0,0.16078636885439504
407.0,0.1613262349494028
408.0,0.1618720084634944
409.0,0.16241259204671912
410.0,0.16283873563527937
411.0,0.1633993945426777
412.0,0.16401829613264324
413.0,0.16455705941176677
414.0,0.16496977281476244
415.0,0.16544488628480133
416.0,0.16597186046294876
417.0,0.1664542842761052
418.0,0.16700599885038903
419.0,0.16762968798279532
420.0,0.168263250144785
421.0,0.16879754971532693
422.0,0.16941072429391207
423.0,0.1700234606849204
424.0,0.17057188344688606
425.0,0.17112355938756615
426.0,0.1717502245276653
427.0,0.17244439526109645
428.0,0.1731478444950388
429.0,0.17374059695452435
430.0,0.1743817022832285
431.0,0.1751012791761111
432.0,0.1758150946181245
433.0,0.17644488035075467
434.0,0.1770889588596611
435.0,0.17776009939855827
436.0,0.17831447953283872
437.0,0.17893571327283092
438.0,0.17952248411226127
439.0,0.18000608379048172
440.0,0.18065525550375305
441.0,0.18130563944754602
442.0,0.1818814400861981
443.0,0.18238424203991507
444.0,0.18297926199080386
445.0,0.1835380019064195
446.0,0.18401007918088705
447.0,0.18446338161948211
448.0,0.1849571618694251
449.0,0.18543460881896284
450.0,0.1858577313843022
451.0,0.18630117287815684
452.0,0.18676500809130347
453.0,0.1871904371524637
454.0,0.18752279243530098
455.0,0.18788350723043112
456.0,0.18829400223488893
457.0,0.18871454099156687
458.0,0.18906405095033973
459.0,0.1894702090477701
460.0,0.18984744384451627
461.0,0.19014549289363333
462.0,0.19045979821028622
463.0,0.1907897272054678
464.0,0.19113951813892277
465.0,0.1915069020170174
466.0,0.19186801771934808
467.0,0.19223716361481885
468.0,0.19260934375457633
469.0,0.1929662921395893
470.0,0.19333965907633588
471.0,0.19371304350690818
472.0,0.19408606413938712
473.0,0.19450242310674087
474.0,0.19486117687685778
475.0,0.19519515741412077
476.0,0.19556641633110936
477.0,0.1959774203639787
478.0,0.19632186644115382
479.0,0.19664616185468653
480.0,0.19708289632223921
481.0,0.19747953150621259
482.0,0.19786983405698572
483.0,0.19828132451100933
484.0,0.1986848379888388
485.0,0.19914789509298533
486.0,0.1996186880020404
487.0,0.20003978137031247
488.0,0.20048707668848142
489.0,0.2009464702741073
490.0,0.2013947327991804
491.0,0.2018168884876047
492.0,0.20226575707148692
493.0,0.20273235824090874
494.0,0.20318534543532019
495.0,0.2035702109084761
496.0,0.20403895547723636
497.0,0.20453419642538198
498.0,0.20498453700567865
499.0,0.2054855951218129
500.0,0.20596255132572225
501.0,0.2064133849052353
502.0,0.2068872272838807
503.0,0.20741659882014377
504.0,0.20791233485812768
505.0,0.20833758304079403
506.0,0.20875342159094992
507.0,0.2092291161056018
508.0,0.20972148415183361
509.0,0.21017826650580992
510.0,0.2106378116829931
511.0,0.21108816697909494
512.0,0.21154635456374313
513.0,0.21204179836845521
514.0,0.2125293979011757
515.0,0.2129597566809808
516.0,0.21335747973956992
517.0,0.21386855637696278
518.0,0.2143772080428436
519.0,0.21483710932601394
520.0,0.21524682226453729
521.0,0.21569653836139763
522.0,0.21611078197212577
523.0,0.2165206695874398
524.0,0.21701010267294313
525.0,0.21746607566965773
526.0,0.21786907268789002
527.0,0.21825024241061328
528.0,0.2187080132914576
529.0,0.2191649185943924
530.0,0.21959877164961333
531.0,0.22001898570475967
532.0,0.22045332087661032
533.0,0.2208849560384535
534.0,0.22131056452757164
535.0,0.2217401060979285
536.0,0.2221513883271908
537.0,0.22256145702122948
538.0,0.22298314569940372
539.0,0.2233969894556865
540.0,0.22381777813546228
541.0,0.2242327676302776
542.0,0.224622781938501
543.0,0.22497388211129898
544.0,0.22534644627903244
545.0,0.22573082405240902
546.0,0.22605534367363062
547.0,0.22638451247331884
548.0,0.22673124836186884
549.0,0.2270903815468437
550.0,0.2274382780209029
551.0,0.2277975986830049
552.0,0.22815639982508445
553.0,0.22849609322533782
554.0,0.22884809505402814
555.0,0.22922690424103476
556.0,0.2296245597825337
557.0,0.23001157989997892
558.0,0.23041438475548787
559.0,0.2308250347580404
560.0,0.23120749342626262
561.0,0.23147611572610796
562.0,0.23170293936922182
563.0,0.2319430558358683
564.0,0.23222692418977844
565.0,0.23247578078060466
566.0,0.23268523762037463
567.0,0.2329118401504985
568.0,0.23327699655008308
569.0,0.23365139173835375
570.0,0.23398860763239143
571.0,0.23428895261345006
572.0,0.23463738133829312
573.0,0.23500857532638328
574.0,0.23535555809895312
575.0,0.23563042950667237
576.0,0.23589240864559746
577.0,0.2361893392697053
578.0,0.23650533835585827
579.0,0.23673324459000952
580.0,0.23690951948332153
581.0,0.23711260529733452
582.0,0.23739171877770968
583.0,0.2376400492060683
584.0,0.2379032518839213
585.0,0.23815775091920943
586.0,0.23834369204605005
587.0,0.23860362599428325
588.0,0.23888556031721603
589.0,0.2391508186271302
590.0,0.2394332572169176
591.0,0.23971887794506244
592.0,0.23996780266654325
593.0,0.24016266079940599
594.0,0.24037522361313035
595.0,0.24054720021543757
596.0,0.24069703753691649
597.0,0.2409121214052624
598.0,0.24117710723677807
599.0,0.2414322207958645
600.0,0.24164169088243914
601.0,0.24184099400730003
602.0,0.24204641053348833
603.0,0.242268107617803
604.0,0.24250133643449545
605.0,0.24268764128863513
606.0,0.2428775184229753
607.0,0.24308015617993617
608.0,0.24325941558106995
609.0,0.2435372937132281
610.0,0.24380899444343385
611.0,0.24399313729482572
612.0,0.24420078896623038
613.0,0.2444363674775094
614.0,0.24463056985321097
615.0,0.2447187099259448
616.0,0.24495472410174504
617.0,0.2451919756642199
618.0,0.24536468589323535
619.0,0.2455579716338267
620.0,0.24578052159759745
621.0,0.24600637502256545
622.0,0.2462054657458518
623.0,0.2463651261295821
624.0,0.24654314357725746
625.0,0.24676545843771103
626.0,0.24702054496869208
627.0,0.24717990248624824
628.0,0.24733080740333283
629.0,0.24753613849097936
630.0,0.2477816208405008
631.0,0.24800902951626616
632.0,0.2481893038137486
633.0,0.24832880335024793
634.0,0.24851577534999036
635.0,0.24870923067062034
636.0,0.2488902712212141
637.0,0.24906074649041918
638.0,0.2492711335890985
639.0,0.24947544739405123
640.0,0.24965472505846956
641.0,0.2498557432660114
642.0,0.2500257157972307
643.0,0.25019333407154265
644.0,0.2503973851532232
645.0,0.25059701693811975
646.0,0.25078235735607657
647.0,0.2509361846620063
648.0,0.25104397175574533
649.0,0.2511904793516893
650.0,0.25140478796117227
651.0,0.2516541426017999
652.0,0.2518177456975301
653.0,0.2519660583451501
654.0,0.2521590145762303
655.0,0.2524231223745714
656.0,0.2525716485521596
657.0,0.25275673701779
658.0,0.2529555689615281
659.0,0.2530272806451495
660.0,0.25317031772911425
661.0,0.2533666270222291
662.0,0.25355401870113964
663.0,0.2536528560081834
664.0,0.25378919641946407
665.0,0.25396671342035704
666.0,0.25414213033993066
667.0,0.2542939114755208
668.0,0.25445174635984336
669.0,0.25463540773629406
670.0,0.2548479025094623
671.0,0.2549762020342712
672.0,0.2550757489934475
673.0,0.2552026897297112
674.0,0.25533922748726434
675.0,0.2554263653063782
676.0,0.25551962245095866
677.0,0.25569900710678645
678.0,0.25589375448795476
679.0,0.25604313769436704
680.0,0.25614037048910093
681.0,0.25623582305289233
682.0,0.25641823024116456
683.0,0.25657348126267426
684.0,0.2566382258817049
685.0,0.25679799934724235
686.0,0.2568318075189667
687.0,0.2568429349675252
688.0,0.25705349504501845
689.0,0.2571560042458744
690.0,0.25728293731389007
691.0,0.25745726591063
692.0,0.25756494208393127
693.0,0.25766941785017555
694.0,0.2577839138372059
695.0,0.2579035291637129
696.0,0.25800566376309014
697.0,0.25811965852270113
698.0,0.25824244621591075
699.0,0.25835921117426935
700.0,0.2584777081621991
701.0,0.2585608115708222
702.0,0.25863868664098566
703.0,0.2588029457085965
704.0,0.25895213003419854
705.0,0.2590483678209234
706.0,0.25910798743444335
707.0,0.259239951248924
708.0,0.2593641605166665
709.0,0.25948040027277525
710.0,0.2596061312589901
711.0,0.25968306565893645
712.0,0.2598100990394447
713.0,0.25997268847393207
714.0,0.2600519512282002
715.0,0.2601861638418791
716.0,0.2602940447317352
717.0,0.26033233717157817
718.0,0.2604408736269564
719.0,0.26058157429291573
720.0,0.260699810984792
721.0,0.26078314215592224
722.0,0.2610249378757611
723.0,0.26118710912651655
724.0,0.2612473896971566
725.0,0.26134852554432797
726.0,0.2614965369162195
727.0,0.2616131014223273
728.0,0.26168815063648215
729.0,0.2618499009698985
730.0,0.26198151877762105
731.0,0.26210227439285133
732.0,0.2622527459984504
733.0,0.2624016346097599
734.0,0.2625067577796146
735.0,0.26260360217432144
736.0,0.2627614796338103
737.0,0.2629100253286312
738.0,0.26303674090391505
739.0,0.26314608283639174
740.0,0.2632500935694437
741.0,0.26338391510555015
742.0,0.2635245473425371
743.0,0.2636428268418838
744.0,0.26373856397330875
745.0,0.2639175636506109
746.0,0.2641384578049144
747.0,0.2642915659728789
748.0,0.26438425838059665
749.0,0.2645011827000583
750.0,0.2646639911948738
751.0,0.26481459092607207
752.0,0.26496215606543855
753.0,0.2651031819045125
754.0,0.2652383097914291
755.0,0.2653752088660516
756.0,0.2655751749244586
757.0,0.2657903788217538
758.0,0.26592921121365226
759.0,0.2658489724698203
760.0,0.2653790107627976
761.0,0.2647513169093521
762.0,0.26558671509331716
763.0,0.26588908111786125
764.0,0.2662457678341374
765.0,0.26682162737044207
766.0,0.26729360716509337
767.0,0.26741930069692343
768.0,0.2674779553034235
769.0,0.26764261236983466
770.0,0.2677703581734732
771.0,0.2679063341361334
772.0,0.2680349684012275
773.0,0.2681312260900539
774.0,0.26828344668334075
775.0,0.2684607957834902
776.0,0.26862902537782535
777.0,0.26876658982345303
778.0,0.26888485790395333
779.0,0.2690260544342401
780.0,0.26920083832412606
781.0,0.269350643342993
782.0,0.26949853109803656
783.0,0.2696452393914819
784.0,0.26978545699414447
785.0,0.26991168661941445
786.0,0.2700691710363949
787.0,0.270243338403386
788.0,0.2703856319901332
789.0,0.27049920856869175
790.0,0.27060674990796535
791.0,0.27072481446327473
792.0,0.27085817544476065
793.0,0.27097043315735947
794.0,0.2711294190039244
795.0,0.27134039843990493
796.0,0.2714410274591523
797.0,0.2715782742383903
798.0,0.2717176660236685
799.0,0.27179736393464893
800.0,0.2718592866131053
801.0,0.27197731114340734
802.0,0.27214556626180936
803.0,0.27230231989828313
804.0,0.27237073891803304
805.0,0.27243669463686365
806.0,0.2725342237843062
807.0,0.2726332690367215
808.0,0.27281304922134386
809.0,0.2730146400816797
810.0,0.27317023533810736
811.0,0.27325035145931365
812.0,0.2732995066115588
813.0,0.27333167561343863
814.0,0.27335389299181273
815.0,0.27337338164220465
816.0,0.27348741258958875
817.0,0.2736651678825326
818.0,0.2738132401807109
819.0,0.27392925829820935
820.0,0.2740835697789839
821.0,0.2742012673980921
822.0,0.2741338987472417
823.0,0.27416251321518853
824.0,0.27431136948347684
825.0,0.2744978375594834
826.0,0.2746057040704805
827.0,0.27469490877617964
828.0,0.27470961108577774
829.0,0.2746718853904333
830.0,0.2748329809233398
831.0,0.27497222438197144
832.0,0.2750460104296121
833.0,0.27508396512438776
834.0,0.2751657560677318
835.0,0.27521377285728293
836.0,0.2752776051926199
837.0,0.27542947820060015
838.0,0.2755286697611232
839.0,0.27554185270579074
840.0,0.2755274194885006
841.0,0.2755981959077221
842.0,0.27572088017216834
843.0,0.27577936731222596
844.0,0.27580012863100134
845.0,0.27597785292151367
846.0,0.27603585031896716
847.0,0.27608111979691874
848.0,0.2761660262101498
849.0,0.2760930622794189
850.0,0.27611455096450677
851.0,0.2762772892547116
852.0,0.2765058428305528
853.0,0.276574856102405
854.0,0.2765823926137515
855.0,0.2765967675078222
856.0,0.2766617262198377
857.0,0.27676605525902964
858.0,0.2768102155788539
859.0,0.2768290375991716
860.0,0.27690900891034104
861.0,0.2769866587096508
862.0,0.27689113959466666
863.0,0.2767422767188235
864.0,0.27685520258407165
865.0,0.27698906571622345
866.0,0.2770806875832944
867.0,0.2771013330506542
868.0,0.27705549760361436
869.0,0.2769836729474111
870.0,0.2770404867046032
871.0,0.27721378293342663
872.0,0.27722725695790706
873.0,0.2771572959749315
874.0,0.277182435845484
875.0,0.27734509552289416
876.0,0.27734268050170463
877.0,0.27730132855972484
878.0,0.2773161491298555
879.0,0.2774245973887136
880.0,0.27752540424250216
881.0,0.27753868439073476
882.0,0.2775075473542733
883.0,0.27752186595174555
884.0,0.27762522703390813
885.0,0.2777542949372335
886.0,0.2779226101610883
887.0,0.27812190661027975
888.0,0.27804067281465716
889.0,0.27805695926960455
890.0,0.27813049095439096
891.0,0.2780249476352116
892.0,0.27818119215785164
893.0,0.27831584905067996
894.0,0.2783081019564194
895.0,0.2782376421927658
896.0,0.27823511300308984
897.0,0.2780462365918243
898.0,0.27771853277804404
899.0,0.2776647331300931
900.0,0.27794580193207674
901.0,0.27810185326036
902.0,0.27802961038132773
903.0,0.2780850036515257
904.0,0.27823289187157557
905.0,0.27820164139666864
906.0,0.2779974928687668
907.0,0.2780175107684116
908.0,0.2778132237135144
909.0,0.27769844672445965
910.0,0.2777917972330313
911.0,0.27766756801924436
912.0,0.2776813659149024
913.0,0.2777715864731894
914.0,0.27781385444620393
915.0,0.2777420580194716
916.0,0.27756397256529813
917.0,0.2775739398972865
918.0,0.27785550741613846
919.0,0.2780203518098058
920.0,0.2781126630803297
921.0,0.27829847806212005
922.0,0.27854345714515677
923.0,0.2783403478752873
924.0,0.27829414882843556
925.0,0.27834096022718036
926.0,0.27827222359387827
927.0,0.278008810532811
928.0,0.2775108583275109
929.0,0.2767447699568825
930.0,0.27565971113274335
931.0,0.2741592048465437
932.0,0.27292028514787664
933.0,0.2718346488567757
934.0,0.2705351627405301
935.0,0.2690955852685358
936.0,0.2696939702010967
937.0,0.2714680017770677
938.0,0.2727914720166115
939.0,0.27264319805511145
940.0,0.27291183214268294
941.0,0.2735220991592782
942.0,0.27393363934802656
943.0,0.27369629787500827
944.0,0.27323372432067256
945.0,0.2730298994031058
946.0,0.273200952627257
947.0,0.2730058686961008
948.0,0.27265981405539386
949.0,0.2726205157296636
950.0,0.2730489155580284
951.0,0.2734217157018607
952.0,0.27371095251482996
953.0,0.2740984372261157
954.0,0.27446464781701896
955.0,0.2740899440412656
956.0,0.27413147434220975
957.0,0.2747050656335006
958.0,0.27532641129787966
959.0,0.27510715514088313
960.0,0.27488363443074537
961.0,0.27518116883171106
962.0,0.2759875708401994
963.0,0.27667104046095353
964.0,0.2767457543401579
965.0,0.276809575670634
966.0,0.2772054262539987
967.0,0.2777127903915221
968.0,0.2779417716150628
969.0,0.27833257428875635
970.0,0.2786357254026959
971.0,0.27805827240470377
972.0,0.2784366938421478
973.0,0.2786537488607667
974.0,0.27867528338974645
975.0,0.2793930627615048
976.0,0.27838822842375605
977.0,0.2774786035144533
978.0,0.2774423504935705
979.0,0.2778352804809196
980.0,0.2781265725052942
981.0,0.27866186852701313
982.0,0.278939243240743
983.0,0.2784917382883243
984.0,0.27905618305592506
985.0,0.27941225640192413
986.0,0.27942395631662764
987.0,0.2793994253396137
988.0,0.27927680139136624
989.0,0.2789223512778618
990.0,0.2787284658671613
991.0,0.2788900734871346
992.0,0.2787100119813763
993.0,0.27807667429709515
994.0,0.2782090264986532
995.0,0.27913674380130055
996.0,0.2783875745377524
997.0,0.27824116318207576
998.0,0.27808496837562807
999.0,0.27758709276472776
1000.0,0.27742212065759925
1001.0,0.2895604959485999
1002.0,0.28924572174135904
1003.0,0.289300654728535
1004.0,0.289782021239196
1005.0,0.28984665064977083
1006.0,0.2896164023716281
1007.0,0.28960672251851394
1008.0,0.2895571105413305
1009.0,0.2894164693074111
1010.0,0.2895545604474586
1011.0,0.2899045735816294
1012.0,0.2900572232750971
1013.0,0.2899314079178394
1014.0,0.2901002421074016
1015.0,0.29014356101464905
1016.0,0.29000417544927487
1017.0,0.2897668045932236
1018.0,0.2897772431853372
1019.0,0.28954854048870343
1020.0,0.2895877714606536
1021.0,0.2900887441991311
1022.0,0.29012139998421793
1023.0,0.29005555462542726
1024.0,0.2902115262372573
1025.0,0.29015933452330017
1026.0,0.29017927226859125
1027.0,0.2904078725501913
1028.0,0.2905724670324869
1029.0,0.2906601683706373
1030.0,0.2908836035490992
1031.0,0.2909212667119604
1032.0,0.2906859391787985
1033.0,0.2905892112330556
1034.0,0.2904381943099724
1035.0,0.29048241237744626
1036.0,0.29067546555249474
1037.0,0.2908034137022946
1038.0,0.29090006756560005
1039.0,0.29095412294530726
1040.0,0.2907804726473439
1041.0,0.29052993198702326
1042.0,0.2906727331432069
1043.0,0.290815010138022
1044.0,0.2907957805737948
1045.0,0.2912934434415106
1046.0,0.2915762778299422
1047.0,0.2918942193846867
1048.0,0.2919410459622327
1049.0,0.291745462707024
1050.0,0.2916582523287397
1051.0,0.29142362873528416
1052.0,0.29133959059793
1053.0,0.2915073454212262
1054.0,0.29172813309843565
1055.0,0.2919989979657272
1056.0,0.2921408508667432
1057.0,0.292190290331362
1058.0,0.2924032784091687
1059.0,0.2926428064728991
1060.0,0.29280433281444446
1061.0,0.2929528832624536
1062.0,0.29314292911351253
1063.0,0.29314352314739145
1064.0,0.292944160381613
1065.0,0.29280838659183966
1066.0,0.2927618223713883
1067.0,0.2925146167285235
1068.0,0.29253223238855164
1069.0,0.2928653602403709
1070.0,0.2930397434449905
1071.0,0.29336761312926013
1072.0,0.2936838370907129
1073.0,0.29363237769628747
1074.0,0.29381726313611617
1075.0,0.29396874479142143
1076.0,0.2938628494909273
1077.0,0.2936965454888568
1078.0,0.2936035856410632
1079.0,0.29337150564066383
1080.0,0.29343048316439474
1081.0,0.29354039427852174
1082.0,0.2935957926907919
1083.0,0.293648173482934
1084.0,0.2934915747936955
1085.0,0.2935592825346844
1086.0,0.29377522818431284
1087.0,0.2940817667598265
1088.0,0.2943611933264912
1089.0,0.2943655944016456
1090.0,0.2944791236278366
1091.0,0.29474285035377873
1092.0,0.29497649940499227
1093.0,0.29513620520419864
1094.0,0.29519936600616153
1095.0,0.2952140179739322
1096.0,0.2950988134149812
1097.0,0.2949524617004061
1098.0,0.2949259658450028
1099.0,0.29508593396862354
1100.0,0.2951693684848913
1101.0,0.29519202207311435
1102.0,0.2952957917401924
1103.0,0.29512772365434375
1104.0,0.29508488935656335
1105.0,0.2951239694123499
1106.0,0.2950849496028266
1107.0,0.29517461056013994
1108.0,0.2952205286627566
1109.0,0.2955366372029487
1110.0,0.2958216474731275
1111.0,0.29603819011993593
1112.0,0.2963027853650006
1113.0,0.2966476639428147
1114.0,0.29668892715466266
1115.0,0.29666985485776987
1116.0,0.2964336838732497
1117.0,0.29627323529347216
1118.0,0.29589676217390565
1119.0,0.2954448773839865
1120.0,0.2956264623154516
1121.0,0.2953259885453643
1122.0,0.29515151849332205
1123.0,0.29538096069260866
1124.0,0.29538988650133025
1125.0,0.2955359067598655
1126.0,0.29563589826122305
1127.0,0.2959190719708429
