Wavelength (nm),Reflectance
350.0,0.10704575121166263
351.0,0.10684085400324476
352.0,0.10675103098843912
353.0,0.10748421434290326
354.0,0.1076968094943067
355.0,0.1076832107018021
356.0,0.10778602789979672
357.0,0.10819716579159694
358.0,0.10835408980856245
359.0,0.10860374817875203
360.0,0.10903071747298769
361.0,0.10914380685141968
362.0,0.10932135230969427
363.0,0.10955720010155215
364.0,0.10982217490131137
365.0,0.11027495953925949
366.0,0.11059814132630365
367.0,0.11086530610639156
368.0,0.11123086751150893
369.0,0.11150371207610305
370.0,0.11189736125504002
371.0,0.11253659869730717
372.0,0.11340801604291502
373.0,0.11410300916629779
374.0,0.11459717525968408
375.0,0.11495802414349444
376.0,0.11530254764988025
377.0,0.11572335785129131
378.0,0.11633034705272563
379.0,0.11705276815032675
380.0,0.11745040556035725
381.0,0.11816610481294683
382.0,0.11903963683366113
383.0,0.11977383904278667
384.0,0.12064517828011369
385.0,0.12108512762880612
386.0,0.12132589894865925
387.0,0.12195371479636079
388.0,0.12302882674271798
389.0,0.12374959816297207
390.0,0.12409924718463343
391.0,0.12476278703793216
392.0,0.12549721992471374
393.0,0.12609660311195298
394.0,0.12658276865995932
395.0,0.12732236091580867
396.0,0.12791501200959376
397.0,0.1283590457333363
398.0,0.1287255190166397
399.0,0.12894854440515932
400.0,0.1295084556900546
401.0,0.1302281013032344
402.0,0.13074389923047455
403.0,0.13116208568030274
404.0,0.13150529485866796
405.0,0.13187667726091012
406.0,0.13242471199159567
407.0,0.13291272073106822
408.0,0.1334291802978965
409.0,0.13399600161583325
410.0,0.13443832629115574
411.0,0.13489500157232467
412.0,0.13542775672079269
413.0,0.13601558040691505
414.0,0.13644081515229042
415.0,0.1368988560412931
416.0,0.13741907119014987
417.0,0.1379457237083357
418.0,0.13851850815217623
419.0,0.13912706993382992
420.0,0.13970967878202167
421.0,0.140169355293241
422.0,0.14078333061753015
423.0,0.14140454249548973
424.0,0.14193039412199734
425.0,0.14252646137093908
426.0,0.14328979110175766
427.0,0.14408932806138672
428.0,0.14477469526094092
429.0,0.1455750394652102
430.0,0.14638508845169398
431.0,0.14718998883612455
432.0,0.14803459168040783
433.0,0.14873403507248115
434.0,0.14940696452538152
435.0,0.1501364690647655
436.0,0.1508990499349178
437.0,0.15164744877523897
438.0,0.15238908012099678
439.0,0.15313004362275282
440.0,0.1538289963681349
441.0,0.15450242797236058
442.0,0.1551522906212623
443.0,0.1557789773770469
444.0,0.15642733911376697
445.0,0.15702297192485493
446.0,0.15755119857900013
447.0,0.15807217870639603
448.0,0.15852758522013202
449.0,0.15899118687333924
450.0,0.15950022813152553
451.0,0.15994133710488462
452.0,0.16035233194962106
453.0,0.16071884161530373
454.0,0.16102623535317376
455.0,0.16136625708776303
456.0,0.16166625304913054
457.0,0.1619324571614252
458.0,0.16224931743628176
459.0,0.16254067782523182
460.0,0.16276674029196989
461.0,0.16294095942240727
462.0,0.16316647196956305
463.0,0.1634324070111327
464.0,0.16370315885734302
465.0,0.16394955361821936
466.0,0.16423878355655552
467.0,0.1644892632873335
468.0,0.16471630760423628
469.0,0.16500964498124712
470.0,0.16529312020681453
471.0,0.16555283167403184
472.0,0.16579996881560502
473.0,0.16606836410176928
474.0,0.16640513434030296
475.0,0.16675563769850066
476.0,0.16706474536117052
477.0,0.16741772777119682
478.0,0.1677183293860075
479.0,0.16796490997400035
480.0,0.16823357929844424
481.0,0.16863835151095635
482.0,0.16908087326057414
483.0,0.16951463684202137
484.0,0.1700243670350376
485.0,0.17049862787694137
486.0,0.17097908724167443
487.0,0.1715160920247267
488.0,0.17200048193872453
489.0,0.1725054361785326
490.0,0.1730398096687224
491.0,0.17357547326347594
492.0,0.1741178913080171
493.0,0.17471805392247716
494.0,0.17535682407242062
495.0,0.17590383243801153
496.0,0.1765137830367961
497.0,0.17715276238966787
498.0,0.177772373436416
499.0,0.17845622851457263
500.0,0.1791136759758358
501.0,0.17975620766492426
502.0,0.18045131787444652
503.0,0.18111119589043248
504.0,0.18179602552305738
505.0,0.18252100291602658
506.0,0.18321471909787954
507.0,0.18386294722647525
508.0,0.18452775130362672
509.0,0.1852587999908283
510.0,0.18597917503124956
511.0,0.1866736847442102
512.0,0.1873623826827163
513.0,0.1880855914854984
514.0,0.1888186993413783
515.0,0.1895676028134687
516.0,0.19033864662411606
517.0,0.1911280185102136
518.0,0.19192998029753727
519.0,0.19271173134086442
520.0,0.19344425507651464
521.0,0.19415093490765134
522.0,0.19488876863706325
523.0,0.1956617910650166
524.0,0.1964375859351685
525.0,0.1972513045665395
526.0,0.1980858343713288
527.0,0.19891909998901436
528.0,0.1997455380217403
529.0,0.2005267878347515
530.0,0.20130562424627288
531.0,0.20214442149991227
532.0,0.20301357092929323
533.0,0.20389463309654557
534.0,0.20477042469929682
535.0,0.20563429095854993
536.0,0.20649968096204757
537.0,0.2073823967235281
538.0,0.20828208412346652
539.0,0.20913375770016857
540.0,0.210031007961835
541.0,0.21092531610841286
542.0,0.2117497463205141
543.0,0.21258705442494732
544.0,0.21342730429490364
545.0,0.21425759854123066
546.0,0.21506065472369298
547.0,0.21588519420216729
548.0,0.21671039593322525
549.0,0.21751834717789678
550.0,0.21833068994007832
551.0,0.21913487768390635
552.0,0.21996652468458014
553.0,0.220852692965898
554.0,0.22167645981344508
555.0,0.22247980161730985
556.0,0.22330050899721937
557.0,0.2241566308715443
558.0,0.22497720148449918
559.0,0.22579089560144616
560.0,0.22661071422444998
561.0,0.2273580976783154
562.0,0.22807436531598516
563.0,0.2287731110325292
564.0,0.22946113072922963
565.0,0.23018864008366988
566.0,0.23089678874730857
567.0,0.23156769586200918
568.0,0.23225034507432168
569.0,0.23289820993987853
570.0,0.23356718823328515
571.0,0.23428431881526154
572.0,0.2349232100582821
573.0,0.23555588418325948
574.0,0.23617597062091458
575.0,0.23674040369714539
576.0,0.23729639125417498
577.0,0.23788069324194788
578.0,0.23847018991254204
579.0,0.23895690817537804
580.0,0.239424232098912
581.0,0.239879623838055
582.0,0.24033185789370617
583.0,0.2408734614780484
584.0,0.2413987835471029
585.0,0.24189116652829293
586.0,0.24239234129379936
587.0,0.24283402571001197
588.0,0.24328534289937093
589.0,0.24377828465928067
590.0,0.2442273508875415
591.0,0.24457339061759809
592.0,0.24489019091804273
593.0,0.2452693585871213
594.0,0.24561004080847665
595.0,0.24589827222158225
596.0,0.24616189125828417
597.0,0.24646100950490601
598.0,0.24673748182817112
599.0,0.24699528364576367
600.0,0.24725177073847404
601.0,0.24753278933000067
602.0,0.24782194259188114
603.0,0.2480756625687979
604.0,0.24826736006099154
605.0,0.24850384173327913
606.0,0.24880560068372234
607.0,0.24912359130553294
608.0,0.24934742838281976
609.0,0.24954664382214123
610.0,0.24976846179051648
611.0,0.2500211220085528
612.0,0.2502264632006491
613.0,0.25040375569324463
614.0,0.2505887455930855
615.0,0.25081234525987156
616.0,0.2510013505263921
617.0,0.25119927809630005
618.0,0.25141081066775034
619.0,0.2515871109208068
620.0,0.2517804005486422
621.0,0.25197641407745275
622.0,0.25216092462526385
623.0,0.2523751407037975
624.0,0.25258023007675356
625.0,0.2527696545142587
626.0,0.25296285382447425
627.0,0.2532147464420268
628.0,0.25349183889554494
629.0,0.2537370724261187
630.0,0.25387636311072853
631.0,0.25400614783603914
632.0,0.25414392581694506
633.0,0.2542883287930552
634.0,0.25446117458494905
635.0,0.25463729273347874
636.0,0.25481370331736486
637.0,0.2549994117683221
638.0,0.25516605218421085
639.0,0.2553323682767669
640.0,0.2555044563018194
641.0,0.2556495051098044
642.0,0.2557898466906922
643.0,0.2559781986730618
644.0,0.25624076124145617
645.0,0.2564526667351261
646.0,0.25663558890522464
647.0,0.2568288396863972
648.0,0.25707682993026043
649.0,0.25734203403662065
650.0,0.25751888631449665
651.0,0.2576092758749055
652.0,0.25784868643887593
653.0,0.2580847879403736
654.0,0.2582885410422538
655.0,0.2584799768230817
656.0,0.25868880011953316
657.0,0.2588757419572731
658.0,0.2590305197770318
659.0,0.2592026073153183
660.0,0.2593594317826493
661.0,0.25956032623898023
662.0,0.25980388039825664
663.0,0.25993116288568896
664.0,0.26010178346417484
665.0,0.2603400954004755
666.0,0.26060735568799137
667.0,0.26082421325626
668.0,0.261040204066477
669.0,0.2612626730481702
670.0,0.26145676687981584
671.0,0.26169127986876883
672.0,0.26190996212872797
673.0,0.2620849961037583
674.0,0.26232225093807604
675.0,0.26255946690251736
676.0,0.2627783323249146
677.0,0.2629798869361704
678.0,0.26317849182447783
679.0,0.2634046510176372
680.0,0.26365889157104533
681.0,0.2639090433883795
682.0,0.2641279260334116
683.0,0.2643250483960045
684.0,0.26453748582379283
685.0,0.2648555031201801
686.0,0.265263416162597
687.0,0.2657226194619409
688.0,0.2660870625897336
689.0,0.2663752429794907
690.0,0.26654954694838
691.0,0.266681762129987
692.0,0.2668900601935109
693.0,0.2671145448088049
694.0,0.26731644092207485
695.0,0.26748730162328327
696.0,0.2676961984104969
697.0,0.26791703858258265
698.0,0.26815289975464474
699.0,0.2684161057230079
700.0,0.26871766777260825
701.0,0.26903231267796396
702.0,0.2693099239059621
703.0,0.26948807676620434
704.0,0.26968828460190725
705.0,0.26993078379321445
706.0,0.27020224819706845
707.0,0.27045340511260174
708.0,0.2707294971293569
709.0,0.2710120613467051
710.0,0.2712703018361032
711.0,0.271563104789159
712.0,0.27180661610045753
713.0,0.2720301378329622
714.0,0.2723658320460263
715.0,0.2726924938760419
716.0,0.2730722625349792
717.0,0.2735612089720875
718.0,0.27407367829625423
719.0,0.2744268995359667
720.0,0.27463555453991384
721.0,0.27482300220854533
722.0,0.27498510725678504
723.0,0.2752853574816764
724.0,0.27570367775790233
725.0,0.2760132523243715
726.0,0.27628535169439583
727.0,0.27657334476241957
728.0,0.2768885455167222
729.0,0.2771468331244323
730.0,0.2774040128883693
731.0,0.277612475069324
732.0,0.27773992205657
733.0,0.2779073314810463
734.0,0.2781165062390186
735.0,0.2783702509983942
736.0,0.27865401076000224
737.0,0.27885196255355416
738.0,0.27904297664678923
739.0,0.279285610009502
740.0,0.2795630565983358
741.0,0.2798050427959768
742.0,0.28003616804216164
743.0,0.28028763902241255
744.0,0.2805352925462855
745.0,0.2808002451791247
746.0,0.2810932706666394
747.0,0.2814085562197997
748.0,0.28168630382953636
749.0,0.28190718175003004
750.0,0.28212968671862615
751.0,0.2824809082631411
752.0,0.28275968480125796
753.0,0.2829824486922476
754.0,0.2832112776179621
755.0,0.28349967094573286
756.0,0.28386525599754575
757.0,0.28422564194492234
758.0,0.2844940840302871
759.0,0.2847263367199901
760.0,0.28513140831445966
761.0,0.2860366285761645
762.0,0.28681094078748803
763.0,0.28730716059888683
764.0,0.2875929194706454
765.0,0.2876177896000512
766.0,0.2874502364105352
767.0,0.2873296158406875
768.0,0.28727063448102197
769.0,0.28726941889653423
770.0,0.2873600990785878
771.0,0.2874883355015635
772.0,0.2876467320760295
773.0,0.28784496651733993
774.0,0.2880610680067823
775.0,0.288281747107625
776.0,0.28849336034661
777.0,0.2886891030029896
778.0,0.28892572083214857
779.0,0.2891187525862375
780.0,0.28924159008110295
781.0,0.2894316132541404
782.0,0.28960615023733777
783.0,0.2897942971118995
784.0,0.29003023719780935
785.0,0.2902411605178065
786.0,0.2904550653852953
787.0,0.29066393911509314
788.0,0.29084979849359927
789.0,0.29110259021198476
790.0,0.2913350386776093
791.0,0.2914929435828163
792.0,0.29158692358159877
793.0,0.2916713260703123
794.0,0.2918035326927601
795.0,0.2919886437795735
796.0,0.2921323349842863
797.0,0.29229697283617373
798.0,0.29245918022006917
799.0,0.2925907696865434
800.0,0.29273556092014147
801.0,0.29288055862822443
802.0,0.2930139017748342
803.0,0.29312801545076295
804.0,0.29322030979369373
805.0,0.2932970369265552
806.0,0.29338375849152326
807.0,0.2935195855669743
808.0,0.2936545982254652
809.0,0.293772385788481
810.0,0.29390388280621643
811.0,0.2941590693394035
812.0,0.29437457358734936
813.0,0.2945997526547701
814.0,0.2948782653979194
815.0,0.2949814777720347
816.0,0.29512960211380734
817.0,0.2952630503256612
818.0,0.2952367638762732
819.0,0.2952746273161504
820.0,0.2953252648584871
821.0,0.2953511260687368
822.0,0.2953543362320708
823.0,0.2955280708867435
824.0,0.29565102404849797
825.0,0.29562319236705553
826.0,0.2955785624939596
827.0,0.29557940734048355
828.0,0.2956993642990611
829.0,0.29589171392772895
830.0,0.29585680522585206
831.0,0.2958181836557523
832.0,0.2958301146506121
833.0,0.29588476235389927
834.0,0.29595983755430494
835.0,0.29598488739663426
836.0,0.2959704928864827
837.0,0.2959557302422277
838.0,0.2958821539574642
839.0,0.2958860704965336
840.0,0.29594960435732653
841.0,0.2959463366266431
842.0,0.29603478311322484
843.0,0.2960521793318403
844.0,0.29600006141108987
845.0,0.2961099005195642
846.0,0.29616485646535795
847.0,0.2961306362390601
848.0,0.2960844569181702
849.0,0.29624098672290666
850.0,0.29644956895753255
851.0,0.2965215650213834
852.0,0.2964046886524392
853.0,0.2964445915226862
854.0,0.2965335009795005
855.0,0.2965853656088721
856.0,0.2965692854989422
857.0,0.2966556920827753
858.0,0.2966609690512745
859.0,0.29665118319545336
860.0,0.2967744458806219
861.0,0.2967703857694347
862.0,0.29680055450793585
863.0,0.2969008883990749
864.0,0.29697357853416384
865.0,0.29692781952992614
866.0,0.296864712583801
867.0,0.296861159237591
868.0,0.2969180321357301
869.0,0.2970265023378182
870.0,0.29715603195693396
871.0,0.2972446452770486
872.0,0.2971910278994041
873.0,0.29719910681751444
874.0,0.29728726230671465
875.0,0.29739141218157067
876.0,0.2973794192666531
877.0,0.2973889076486634
878.0,0.2974589231954009
879.0,0.2975568328751243
880.0,0.2975225163789391
881.0,0.2976144644118584
882.0,0.29773916303800146
883.0,0.2977467983482895
884.0,0.29782768503241225
885.0,0.2978907707641599
886.0,0.2980358362189716
887.0,0.2983545852090768
888.0,0.2984419669092242
889.0,0.2984787631156858
890.0,0.2986254350074111
891.0,0.2989217439440576
892.0,0.29888385828629144
893.0,0.29890396925032103
894.0,0.29912579110080656
895.0,0.2994099630292153
896.0,0.2996868168086384
897.0,0.2998032982537093
898.0,0.2998303393822928
899.0,0.30003730097126835
900.0,0.29998958234586937
901.0,0.30006442239142433
902.0,0.30022459517763384
903.0,0.29996732690226197
904.0,0.300084033331322
905.0,0.3002980308469404
906.0,0.3003698894750601
907.0,0.30032599590251985
908.0,0.3004515563608699
909.0,0.3004897635724216
910.0,0.3003673250966792
911.0,0.300478317514621
912.0,0.3008252092271253
913.0,0.30118369858006894
914.0,0.30135613129309763
915.0,0.3013105111554559
916.0,0.301250660931744
917.0,0.3013261538887517
918.0,0.3015229071965307
919.0,0.3015925350010031
920.0,0.301500410904817
921.0,0.30161820506242115
922.0,0.30205021404358107
923.0,0.3021739989931905
924.0,0.30214156347902543
925.0,0.30205997791428923
926.0,0.302006380498723
927.0,0.30197754101608953
928.0,0.30195710825251826
929.0,0.3019772960056906
930.0,0.3019237564026206
931.0,0.30116736492578217
932.0,0.3003425738220068
933.0,0.29969562277337336
934.0,0.29922989079735574
935.0,0.2987183053465111
936.0,0.29871567443527974
937.0,0.2995995459263704
938.0,0.30100464945243055
939.0,0.30149874872015897
940.0,0.3017692762863071
941.0,0.30200615367787154
942.0,0.30228154403210594
943.0,0.30269069233840434
944.0,0.3020704609446261
945.0,0.30147168458899637
946.0,0.30175049549670313
947.0,0.30158472796095587
948.0,0.30181005993467586
949.0,0.3023574281848442
950.0,0.3028951176433399
951.0,0.3030767585650287
952.0,0.3029603051741383
953.0,0.30302611125125156
954.0,0.3035280806474986
955.0,0.3041148621303703
956.0,0.30386990924844726
957.0,0.30384062047087074
958.0,0.3045493891554303
959.0,0.3049678278621663
960.0,0.3045651573064069
961.0,0.3046712439398353
962.0,0.30552343276397537
963.0,0.30551219741277946
964.0,0.30601121574675416
965.0,0.3064629503283241
966.0,0.3066148214327587
967.0,0.3068797868841839
968.0,0.30682805474040487
969.0,0.3068911213275126
970.0,0.30723780917515886
971.0,0.3076392649035118
972.0,0.307990834848524
973.0,0.30760591900863515
974.0,0.3071124185185817
975.0,0.3080042535870013
976.0,0.3088146898917411
977.0,0.3089016140215843
978.0,0.3086279672143654
979.0,0.3088314781611609
980.0,0.3090228477446534
981.0,0.3093888944042306
982.0,0.3097307520760684
983.0,0.30982230806191136
984.0,0.31035293906548606
985.0,0.31025341064087647
986.0,0.3098517325204956
987.0,0.3098502768246663
988.0,0.309984883584722
989.0,0.30955032866376186
990.0,0.3089981106653742
991.0,0.30899432454157655
992.0,0.3096489765814251
993.0,0.3096995337254153
994.0,0.3100158465751413
995.0,0.3108116229018339
996.0,0.31023673253056777
997.0,0.30990537310165267
998.0,0.3100974312550152
999.0,0.3105129866846634
1000.0,0.31054704667504557
1001.0,0.32121619569568366
1002.0,0.32170207207174784
1003.0,0.32197362478347935
1004.0,0.3222995584846221
1005.0,0.3224445214169521
1006.0,0.3224111278088105
1007.0,0.322521364147518
1008.0,0.3226303871067841
1009.0,0.3225113446244727
1010.0,0.32254658103857914
1011.0,0.3225744574567296
1012.0,0.3226068243714054
1013.0,0.3227478228167125
1014.0,0.3230455055812052
1015.0,0.3232039089708273
1016.0,0.3234759861973347
1017.0,0.3237491959889021
1018.0,0.3241366870653336
1019.0,0.3248520874398786
1020.0,0.325138610597924
1021.0,0.32535456903071786
1022.0,0.32523485102294325
1023.0,0.32492871461126593
1024.0,0.3248945129343481
1025.0,0.3251932413665942
1026.0,0.3252586165431701
1027.0,0.3252644211957865
1028.0,0.3253004081587944
1029.0,0.3251490132614554
1030.0,0.32524120741719686
1031.0,0.32532313887031605
1032.0,0.32551136595751734
1033.0,0.3256906081896041
1034.0,0.3259352593343868
1035.0,0.32602727668308956
1036.0,0.32606493737751907
1037.0,0.3261641221514184
1038.0,0.3263738471535634
1039.0,0.3264735801972376
1040.0,0.3267438347159639
1041.0,0.32721106332775923
1042.0,0.32731571191385816
1043.0,0.3275694227272939
1044.0,0.32792672944636214
1045.0,0.3280663033239994
1046.0,0.3281667898779453
1047.0,0.328019655012066
1048.0,0.328220818856793
1049.0,0.32869079603385487
1050.0,0.3288844360453962
1051.0,0.3291654504123976
1052.0,0.32934455666531215
1053.0,0.3291760992076017
1054.0,0.3291382657929723
1055.0,0.3292391613168102
1056.0,0.32934546093343425
1057.0,0.3295328746700854
1058.0,0.32957632589939
1059.0,0.32966083880408387
1060.0,0.3298703291625222
1061.0,0.3303686813900845
1062.0,0.331026699120786
1063.0,0.3314422778406023
1064.0,0.3318319733999417
1065.0,0.3322051529249525
1066.0,0.33228122671177995
1067.0,0.33226981461084204
1068.0,0.33242108015600913
1069.0,0.3325088027578158
1070.0,0.3326339493423939
1071.0,0.33269185427314496
1072.0,0.33267620698603095
1073.0,0.3327676501564683
1074.0,0.33271379382793315
1075.0,0.3327361249536385
1076.0,0.3330029571827907
1077.0,0.3332655731469975
1078.0,0.33354535718793626
1079.0,0.33403741586350644
1080.0,0.33442212456111375
1081.0,0.3344738007753403
1082.0,0.33451687113334794
1083.0,0.33452865341495497
1084.0,0.3345988112336636
1085.0,0.3347360472322824
1086.0,0.33481516205577594
1087.0,0.33518660633564756
1088.0,0.33548218263144025
1089.0,0.3355980843029623
1090.0,0.3358156489310362
1091.0,0.33603599737767414
1092.0,0.3364681018180336
1093.0,0.3367980082590872
1094.0,0.3369612588364053
1095.0,0.3370533828456293
1096.0,0.3372301093504115
1097.0,0.3372862981544401
1098.0,0.3375568677849098
1099.0,0.3382971692130436
1100.0,0.3387164157668096
1101.0,0.3389090482270285
1102.0,0.33928278655257843
1103.0,0.33940539167488387
1104.0,0.3395396949504162
1105.0,0.3398076981872479
1106.0,0.3398968644767555
1107.0,0.3400794909273597
1108.0,0.34037409401040347
1109.0,0.3406963335694416
1110.0,0.34101288966928267
1111.0,0.3412853756607382
1112.0,0.34154096141371315
1113.0,0.3417994623715541
1114.0,0.34211747417397215
1115.0,0.34237081979248396
1116.0,0.34240878502964983
1117.0,0.342690191546097
1118.0,0.3430966272700167
1119.0,0.34340278986401784
1120.0,0.3436733728898722
1121.0,0.3439513032453622
1122.0,0.3443159941043842
1123.0,0.344399814645699
1124.0,0.3444274731200643
1125.0,0.3446544478382546
1126.0,0.3449033797583785
1127.0,0.3449186041932497
