Wavelength (nm),Reflectance
350.0,0.2471414557011798
351.0,0.24765767134606162
352.0,0.24822799817501004
353.0,0.2486102087272658
354.0,0.24928467876673674
355.0,0.2496383135267762
356.0,0.2498747871014892
357.0,0.25089808485129644
358.0,0.2514569053843837
359.0,0.2518637880873511
360.0,0.25248958823974155
361.0,0.25339822275353124
362.0,0.254073644881977
363.0,0.254550991544873
364.0,0.25505280231581623
365.0,0.25594517078992435
366.0,0.25669823886708887
367.0,0.25737607137846213
368.0,0.25815695788648085
369.0,0.25863423701849786
370.0,0.2594706362956543
371.0,0.26039288816294925
372.0,0.26064749569297724
373.0,0.26131326675071487
374.0,0.2621334507614663
375.0,0.26298762297149264
376.0,0.26405411479811886
377.0,0.2645107919202283
378.0,0.2648217324976874
379.0,0.2654832689396371
380.0,0.2665695913040048
381.0,0.267182577952547
382.0,0.2678003957926326
383.0,0.26896081771698804
384.0,0.26969580074523825
385.0,0.27044173727037
386.0,0.27121549962887875
387.0,0.2718205359639722
388.0,0.2721987918613167
389.0,0.2725697583658663
390.0,0.27319846356440053
391.0,0.2742777262655975
392.0,0.27480102335857876
393.0,0.2752674865434495
394.0,0.2759256187654096
395.0,0.276217532468431
396.0,0.2771965030775074
397.0,0.27812655876091014
398.0,0.27842058423142313
399.0,0.2788860991537686
400.0,0.2793878721207341
401.0,0.27991255276096955
402.0,0.2804560048413101
403.0,0.2808151432330805
404.0,0.28109455560505325
405.0,0.2814696054376215
406.0,0.2821156472849492
407.0,0.28255837797558325
408.0,0.28308066598862025
409.0,0.2837781261604231
410.0,0.28423737089179757
411.0,0.2846525067038055
412.0,0.28513068420928994
413.0,0.2856883224740102
414.0,0.28612352611205133
415.0,0.28654448263777216
416.0,0.28700683777725006
417.0,0.2875218089991989
418.0,0.28803645305251513
419.0,0.2885022187760856
420.0,0.28894918945895276
421.0,0.2894818864986858
422.0,0.28992709946546436
423.0,0.2904083547624565
424.0,0.29099651780182567
425.0,0.2915120423840721
426.0,0.2920440363769304
427.0,0.2926302264824899
428.0,0.29327313793930515
429.0,0.29390192916749697
430.0,0.2944658938247074
431.0,0.2950258659658751
432.0,0.29569975004748406
433.0,0.2963289829508917
434.0,0.2968853337266618
435.0,0.29740574323667285
436.0,0.29798772034456183
437.0,0.29856016922804124
438.0,0.2991246548470723
439.0,0.29968728938445693
440.0,0.30021497335599284
441.0,0.30073586953009207
442.0,0.30127650612998996
443.0,0.3018432928378056
444.0,0.3023177840185419
445.0,0.30278287101911605
446.0,0.3032753739525884
447.0,0.30375702777254426
448.0,0.304220319597517
449.0,0.30470187694334677
450.0,0.30520266208832597
451.0,0.30561230099277353
452.0,0.306014463085246
453.0,0.3064367928872449
454.0,0.3068751968346644
455.0,0.3072798911213686
456.0,0.30768995732488963
457.0,0.30810961242258045
458.0,0.3085076904886667
459.0,0.30892458626667835
460.0,0.30934613186022886
461.0,0.3097605773332232
462.0,0.3101834284124544
463.0,0.3105542590829405
464.0,0.31093190491155825
465.0,0.31137209021327206
466.0,0.3116881132737739
467.0,0.31208537673216424
468.0,0.3125699357380183
469.0,0.31298107327407326
470.0,0.31338821370997033
471.0,0.3138463507240511
472.0,0.31431346591826764
473.0,0.3145694072804486
474.0,0.3149935997195587
475.0,0.3154646346313908
476.0,0.3158053675507236
477.0,0.3162721626214966
478.0,0.31675532766418896
479.0,0.3172455795078379
480.0,0.31779189002179586
481.0,0.3182319312939463
482.0,0.31870160498179434
483.0,0.31927428824053183
484.0,0.3198533664958914
485.0,0.3203710401101252
486.0,0.3208536099306008
487.0,0.32136556162282043
488.0,0.32199182553890776
489.0,0.32246256363844267
490.0,0.3228596235033372
491.0,0.3234513993797252
492.0,0.3239475466899829
493.0,0.3243908394921516
494.0,0.3248841841512633
495.0,0.32556408324793434
496.0,0.3261857106270409
497.0,0.3266787485689214
498.0,0.32708559426221295
499.0,0.3276361319014168
500.0,0.32817611649320677
501.0,0.3286821143312859
502.0,0.32921358344514556
503.0,0.32970250502053955
504.0,0.33024018933954885
505.0,0.3308317954249692
506.0,0.33133257045616793
507.0,0.33181084317887505
508.0,0.33229116623467503
509.0,0.33278938580479256
510.0,0.33331883306163257
511.0,0.3338988715413721
512.0,0.33444730024579
513.0,0.33484959304403056
514.0,0.33534233688173054
515.0,0.3359084515494691
516.0,0.3364644943687648
517.0,0.3368647561775134
518.0,0.33743067764141566
519.0,0.33807754498731757
520.0,0.33862703877072164
521.0,0.3390584108958573
522.0,0.3395467059484686
523.0,0.3400798241446941
524.0,0.34053380910574677
525.0,0.341057141693674
526.0,0.34160057648032405
527.0,0.3421145365778253
528.0,0.3425997603434694
529.0,0.3430717895203008
530.0,0.34355976158776486
531.0,0.34408592589988984
532.0,0.34459304651475897
533.0,0.34510620614180854
534.0,0.3456370829037313
535.0,0.3461855648880606
536.0,0.3467173912060891
537.0,0.3472339825408926
538.0,0.3477500385998433
539.0,0.3482783413944081
540.0,0.3487908901430019
541.0,0.34929530901695416
542.0,0.3498069688036554
543.0,0.35030451372562277
544.0,0.35079922318813145
545.0,0.3512888891934243
546.0,0.35175632467525236
547.0,0.35224160816328093
548.0,0.3527500352156398
549.0,0.3532890978925942
550.0,0.3538990376738558
551.0,0.35447345610335584
552.0,0.3550260622121895
553.0,0.3556195158146213
554.0,0.35629244308237823
555.0,0.35697312322359315
556.0,0.3576185610532463
557.0,0.35822564678231716
558.0,0.35876999949729976
559.0,0.3593032458504398
560.0,0.359854457791794
561.0,0.3603549883541893
562.0,0.360807379138422
563.0,0.3612243560247047
564.0,0.3616158766845725
565.0,0.36192247231069324
566.0,0.36221061803272314
567.0,0.3625293344657348
568.0,0.36288975637813103
569.0,0.36338519442501444
570.0,0.3639877897925283
571.0,0.3646299134243281
572.0,0.3652698986521695
573.0,0.36582897575919093
574.0,0.36624049965173977
575.0,0.3664874455977469
576.0,0.3668683584012099
577.0,0.36729257477107446
578.0,0.3676772135053623
579.0,0.3680305556757728
580.0,0.36840103154379394
581.0,0.36875866692881726
582.0,0.369077241922157
583.0,0.3694296291799434
584.0,0.3697618460171478
585.0,0.3701336371439747
586.0,0.37064318547758507
587.0,0.3708856122827759
588.0,0.37098870257305466
589.0,0.37111879462821795
590.0,0.37135500552237205
591.0,0.3716196159936328
592.0,0.371868273579751
593.0,0.3720841586870774
594.0,0.3722693658948868
595.0,0.3724736921828596
596.0,0.372697173670747
597.0,0.3729000686569071
598.0,0.37311939522993737
599.0,0.373385332007904
600.0,0.37368068879289074
601.0,0.37388502697366666
602.0,0.37409424462698143
603.0,0.3743143187232463
604.0,0.3745075105295728
605.0,0.3745959047767489
606.0,0.3746305624492239
607.0,0.37467739817014784
608.0,0.3748035047354734
609.0,0.374915039160108
610.0,0.3749941929729234
611.0,0.37506151819013
612.0,0.3751928150612064
613.0,0.3753515972671317
614.0,0.37549949393166754
615.0,0.37559813816704857
616.0,0.3756284384802941
617.0,0.37569936460414205
618.0,0.3758169031176096
619.0,0.37585265272974433
620.0,0.3759099011050709
621.0,0.3759595449632623
622.0,0.3759864362264667
623.0,0.3761348754079921
624.0,0.3761713263108112
625.0,0.3761334571751868
626.0,0.37620004629410225
627.0,0.3762196341931022
628.0,0.3762019988540104
629.0,0.376184302909511
630.0,0.3762153156217095
631.0,0.37635210990145873
632.0,0.37650737639705045
633.0,0.3765913174114647
634.0,0.3766728117663919
635.0,0.37671233082298733
636.0,0.3767482453376221
637.0,0.3768544478573424
638.0,0.37688646207565746
639.0,0.3769260950007117
640.0,0.37699934388826306
641.0,0.3769782227416565
642.0,0.3769791563008325
643.0,0.376978225121342
644.0,0.37693514859992217
645.0,0.37694551140181853
646.0,0.3768931047147538
647.0,0.3767840497986097
648.0,0.37672912253415797
649.0,0.37673598079125203
650.0,0.37678517324619626
651.0,0.37681351957909753
652.0,0.37667152690593614
653.0,0.3767044287546355
654.0,0.37674868763625824
655.0,0.3765591700345988
656.0,0.3764919362215962
657.0,0.37651900703350905
658.0,0.37651852359639365
659.0,0.3763493843959117
660.0,0.3763079334735206
661.0,0.37627282647036675
662.0,0.37614888322418794
663.0,0.3760331059248924
664.0,0.37594868228613976
665.0,0.3758734934083534
666.0,0.3757594650645933
667.0,0.3755449229562988
668.0,0.3753834075030765
669.0,0.3753042797831217
670.0,0.37520484887512995
671.0,0.37513948650021417
672.0,0.37502931392190564
673.0,0.3748404185422788
674.0,0.37469225344762946
675.0,0.37456148437906966
676.0,0.37445296529546973
677.0,0.374368175575963
678.0,0.3742478307103606
679.0,0.3741106935692183
680.0,0.3739652531119783
681.0,0.373806460701532
682.0,0.3736891172266736
683.0,0.37360700605548264
684.0,0.37353134053730963
685.0,0.3734196383820864
686.0,0.373174853131045
687.0,0.3728563134441287
688.0,0.3726758622830249
689.0,0.37262613968348307
690.0,0.3727337684213348
691.0,0.37285273104284233
692.0,0.3727261643874314
693.0,0.3726361526313809
694.0,0.37260734289919883
695.0,0.37260853633307867
696.0,0.37258847766266917
697.0,0.37254934092565056
698.0,0.3724940669900404
699.0,0.3724153661337096
700.0,0.3722280765001764
701.0,0.37207329435394715
702.0,0.37201070087060834
703.0,0.37199075154157885
704.0,0.37187888108349393
705.0,0.3717144778773866
706.0,0.37157750365571085
707.0,0.37158491863049764
708.0,0.3714611533453817
709.0,0.3712739122387668
710.0,0.37118538412847757
711.0,0.371063835377031
712.0,0.3709290818411981
713.0,0.37078983480222155
714.0,0.3706378591646542
715.0,0.3704967520489239
716.0,0.37024187416408216
717.0,0.36983520614847515
718.0,0.36956942394938214
719.0,0.3693691051552211
720.0,0.3693047620522613
721.0,0.36938932065937485
722.0,0.36935499779812
723.0,0.3692187440862866
724.0,0.3690210569435524
725.0,0.3688456009503836
726.0,0.36864463452834945
727.0,0.3685484722964706
728.0,0.3685510499594466
729.0,0.368370376979308
730.0,0.36825298609578044
731.0,0.36824509239285497
732.0,0.3683125328973891
733.0,0.3683979354849963
734.0,0.36842005982473947
735.0,0.36835054015602064
736.0,0.36820456424278475
737.0,0.36805254826927974
738.0,0.36804732416435715
739.0,0.3681542641504543
740.0,0.3680688833431321
741.0,0.3680635019331979
742.0,0.3680624100934902
743.0,0.36797006711317404
744.0,0.3679007980896399
745.0,0.3678330466837376
746.0,0.3677698879946724
747.0,0.3677275199164094
748.0,0.36773442954611846
749.0,0.36773557888703706
750.0,0.36768890850276054
751.0,0.3675809746145395
752.0,0.36749470712660226
753.0,0.3674123302065777
754.0,0.3673258605057571
755.0,0.3673076833145865
756.0,0.36726060813860667
757.0,0.3672036633266564
758.0,0.36717634582841596
759.0,0.36709386992653814
760.0,0.3667097610513658
761.0,0.36566613295427447
762.0,0.36501698767325086
763.0,0.3649480188564254
764.0,0.3650014447321495
765.0,0.3651594657881881
766.0,0.365689067552433
767.0,0.366073029162493
768.0,0.3663086827954509
769.0,0.3664308217306478
770.0,0.366400904123523
771.0,0.3664412627119666
772.0,0.3665094913151048
773.0,0.3664628323316229
774.0,0.3664047658823569
775.0,0.3663572176794763
776.0,0.36633450963238523
777.0,0.3663432155462494
778.0,0.36634367702225445
779.0,0.36627424791036434
780.0,0.3661569964355136
781.0,0.3661768233249152
782.0,0.3662371082679294
783.0,0.3662146729116015
784.0,0.3660574829920877
785.0,0.36601230830934356
786.0,0.3659544182702403
787.0,0.3658742051872292
788.0,0.3658202997762969
789.0,0.3657030511580511
790.0,0.3656233009412785
791.0,0.36562422819449675
792.0,0.3656588050171386
793.0,0.3656744517306071
794.0,0.3656973165490306
795.0,0.36570312976973385
796.0,0.3655159657727596
797.0,0.36552039466974806
798.0,0.3655531511265281
799.0,0.3654099823597305
800.0,0.36544568739215827
801.0,0.36539881963455717
802.0,0.36528984639935685
803.0,0.36528741730363473
804.0,0.36530872277083015
805.0,0.3653804523055595
806.0,0.3654436738183494
807.0,0.36536403814151114
808.0,0.3652848654090997
809.0,0.36524327688344016
810.0,0.3652047008415501
811.0,0.3650383779161804
812.0,0.36485309056409776
813.0,0.3647006984148231
814.0,0.3645939605807406
815.0,0.36445510225495364
816.0,0.3643854008630387
817.0,0.3643490294542518
818.0,0.36428091304859095
819.0,0.36437189090133065
820.0,0.3645885051057694
821.0,0.36470851112582553
822.0,0.36444957286451246
823.0,0.3643013084961679
824.0,0.36444701341543234
825.0,0.36469983149763313
826.0,0.36458540906882464
827.0,0.3645010774501049
828.0,0.3644609408216368
829.0,0.36443789707855395
830.0,0.3644785817739523
831.0,0.36450595517800954
832.0,0.3645330257365618
833.0,0.3645793585928741
834.0,0.3645820693020034
835.0,0.3645732008473487
836.0,0.364577058622106
837.0,0.36460141067566815
838.0,0.3645847440886386
839.0,0.36464773262407796
840.0,0.36475597614155847
841.0,0.3647596455986436
842.0,0.364705934447465
843.0,0.36467856903641616
844.0,0.3647187871054203
845.0,0.36480067021223356
846.0,0.36481299656659577
847.0,0.3648090295924346
848.0,0.3648263993717839
849.0,0.3648102549168079
850.0,0.36467287079728355
851.0,0.3645543050785455
852.0,0.3645764577051879
853.0,0.3646213084131283
854.0,0.3645954899764953
855.0,0.3645902206258731
856.0,0.36471522230834946
857.0,0.36484643424260566
858.0,0.3647756895688907
859.0,0.3646384458927975
860.0,0.36469136827158577
861.0,0.36467514562490855
862.0,0.3645954933989807
863.0,0.36453602478268715
864.0,0.3646041808555619
865.0,0.3646692585629221
866.0,0.3646050952861805
867.0,0.3644724715192947
868.0,0.3645239069185527
869.0,0.36453235759748365
870.0,0.364525280275183
871.0,0.3645066319545008
872.0,0.3643869310388339
873.0,0.36450682375081894
874.0,0.3646449021275384
875.0,0.364597979749642
876.0,0.3645041618963543
877.0,0.3645095739650646
878.0,0.3646035760221859
879.0,0.3646764169222449
880.0,0.36448365672390404
881.0,0.3644575588669862
882.0,0.3644593165437736
883.0,0.3642981391982309
884.0,0.3644944784216411
885.0,0.3645649544908761
886.0,0.36450640387915767
887.0,0.3645167653140381
888.0,0.36442264877790004
889.0,0.3645145304468791
890.0,0.36469905791004886
891.0,0.3646702663778512
892.0,0.36450774319585966
893.0,0.36425346528304825
894.0,0.36400045829165556
895.0,0.36386360933465006
896.0,0.36375765402418697
897.0,0.3636767679485966
898.0,0.363654682208002
899.0,0.3637183719175997
900.0,0.363489380218104
901.0,0.363252932843906
902.0,0.36335284152152814
903.0,0.3639474327593351
904.0,0.36400995107478007
905.0,0.3639064004967051
906.0,0.3639525228965245
907.0,0.364090947129553
908.0,0.36373148846067777
909.0,0.3634900739981175
910.0,0.3636865872321548
911.0,0.3637395703089187
912.0,0.3637714061228031
913.0,0.36349882647493365
914.0,0.3630424044757058
915.0,0.36329162096435114
916.0,0.36345692642345184
917.0,0.36352739360492925
918.0,0.3636361181927601
919.0,0.36382096263092323
920.0,0.3641165752327641
921.0,0.36423499793958153
922.0,0.3640671593079123
923.0,0.36400371210618127
924.0,0.36419872561224176
925.0,0.36421765391202937
926.0,0.36382442178989194
927.0,0.36368702621617166
928.0,0.36356864325716237
929.0,0.36322233215885047
930.0,0.36259825507074145
931.0,0.3624164191102766
932.0,0.3615722610725526
933.0,0.3608009737454486
934.0,0.3611041827253676
935.0,0.36137595107748954
936.0,0.3617895323260847
937.0,0.36200835748101606
938.0,0.3618340327955873
939.0,0.36145186636322474
940.0,0.36181655514432104
941.0,0.36199816711760613
942.0,0.36158075297483283
943.0,0.362412043675664
944.0,0.3625882392493012
945.0,0.36226376735366905
946.0,0.3620043889959983
947.0,0.3617006455931354
948.0,0.3619492810950089
949.0,0.3625298253381484
950.0,0.36300588515377125
951.0,0.36302406768260537
952.0,0.36231829341215677
953.0,0.3618317068270381
954.0,0.3622211194483839
955.0,0.36303904274322857
956.0,0.3636016023228381
957.0,0.3631411850582537
958.0,0.36216883275195266
959.0,0.36289164681412794
960.0,0.36352334676467063
961.0,0.363285149233802
962.0,0.3626473580982341
963.0,0.36324317082431357
964.0,0.36354299573354276
965.0,0.3635112381693839
966.0,0.36362416548635296
967.0,0.3644671253557921
968.0,0.3649492329419466
969.0,0.3648481987529048
970.0,0.3646957875884297
971.0,0.3653475481501924
972.0,0.3649291466765266
973.0,0.36472932600629787
974.0,0.36525892983955754
975.0,0.36581042844842265
976.0,0.3652972207527567
977.0,0.36455894685274237
978.0,0.3644169934800591
979.0,0.3651420091623042
980.0,0.3655313111021047
981.0,0.36574650481104054
982.0,0.3657477953393242
983.0,0.3655253670399843
984.0,0.3657761452995829
985.0,0.3660412042066434
986.0,0.36648654243103296
987.0,0.367045606781873
988.0,0.3658139186976096
989.0,0.36613329636642766
990.0,0.3668404373490885
991.0,0.36631221019688387
992.0,0.36589070633373133
993.0,0.3664424526553941
994.0,0.3669308393526702
995.0,0.3665644425853958
996.0,0.3660921690067121
997.0,0.3676579649874781
998.0,0.3685951249992335
999.0,0.367762422588907
1000.0,0.36730179550938263
1001.0,0.36390261045070454
1002.0,0.364129258447718
1003.0,0.3642524521387062
1004.0,0.3643093529279776
1005.0,0.36444380499301593
1006.0,0.36465293029106266
1007.0,0.3649334921243443
1008.0,0.36534366496205084
1009.0,0.36558988837893897
1010.0,0.36593346909662744
1011.0,0.36593087881882036
1012.0,0.36588501541091384
1013.0,0.36569466037940423
1014.0,0.36546649272666326
1015.0,0.3656965853981137
1016.0,0.36570230695055733
1017.0,0.3656482055641476
1018.0,0.36570433040994915
1019.0,0.3657653445075151
1020.0,0.36572345008076845
1021.0,0.36560997750945584
1022.0,0.3658750219614706
1023.0,0.3656234853890101
1024.0,0.3653839046207657
1025.0,0.3655304857600678
1026.0,0.3654319988554999
1027.0,0.36578039711033933
1028.0,0.3661792343032074
1029.0,0.36598470816043127
1030.0,0.36572145663616906
1031.0,0.3655345740023996
1032.0,0.3650298273804101
1033.0,0.36486445750388763
1034.0,0.3650829518933535
1035.0,0.36512514869323115
1036.0,0.36515688556312637
1037.0,0.36515416147188184
1038.0,0.3651875601491679
1039.0,0.3652847705112652
1040.0,0.36549957187372456
1041.0,0.36562205000147713
1042.0,0.3656105562974443
1043.0,0.3653677264740563
1044.0,0.36506381126765064
1045.0,0.3650434280860262
1046.0,0.3650938204937718
1047.0,0.3653203626689746
1048.0,0.36552189544931774
1049.0,0.36586377087739175
1050.0,0.36606223375238783
1051.0,0.36624074565505726
1052.0,0.3664076471595209
1053.0,0.36664671304098606
1054.0,0.3664499528142202
1055.0,0.36631665685978343
1056.0,0.3664368755299124
1057.0,0.36606256788043656
1058.0,0.36597031658730655
1059.0,0.36607293876172364
1060.0,0.3662003738344469
1061.0,0.366442644388457
1062.0,0.36640035049050634
1063.0,0.36631587382691955
1064.0,0.3660984121816839
1065.0,0.3657227168942
1066.0,0.36559756705799656
1067.0,0.3656800842776118
1068.0,0.3655824088822133
1069.0,0.36557177163665006
1070.0,0.36543031880229426
1071.0,0.3652928489031682
1072.0,0.3654736440411992
1073.0,0.3656799067395909
1074.0,0.36578933342595304
1075.0,0.3657389733556311
1076.0,0.36577224752211845
1077.0,0.36582926528752663
1078.0,0.3659068243389271
1079.0,0.3660045789652174
1080.0,0.36626533294449737
1081.0,0.3662289700569335
1082.0,0.36626774320147193
1083.0,0.36636512183148146
1084.0,0.3662891032448073
1085.0,0.3663133870012015
1086.0,0.3662294745840428
1087.0,0.36618845274087797
1088.0,0.3664169072605506
1089.0,0.36677578041871184
1090.0,0.3669619714786534
1091.0,0.3670555883887047
1092.0,0.3669834670301255
1093.0,0.3665433225883147
1094.0,0.3662525696075801
1095.0,0.36599091580101817
1096.0,0.365721287070854
1097.0,0.36549754678453267
1098.0,0.3657710469316149
1099.0,0.3662174927978877
1100.0,0.366368310153348
1101.0,0.36646290240030577
1102.0,0.3666186950524709
1103.0,0.36664758955042254
1104.0,0.3668612850729074
1105.0,0.36698146381777214
1106.0,0.36684361234542184
1107.0,0.3667202464708047
1108.0,0.3665817932478586
1109.0,0.3666181211576394
1110.0,0.3667456593852168
1111.0,0.36680924279929145
1112.0,0.36685606651561153
1113.0,0.36688152685284037
1114.0,0.3668700609233418
1115.0,0.36666470188775035
1116.0,0.36639128314904196
1117.0,0.3660902500562689
1118.0,0.365867030113733
1119.0,0.3661258369492541
1120.0,0.36644774211206876
1121.0,0.36677167571417163
1122.0,0.3669622776099661
1123.0,0.3669535585267117
1124.0,0.36726128195624225
1125.0,0.3673726051895214
1126.0,0.36728170935241683
1127.0,0.36693210462612175
1128.0,0.3670434403464812
1129.0,0.3670901811871096
1130.0,0.3672920500087819
1131.0,0.3678411099804183
