Wavelength (nm),Reflectance
350.0,0.17146323458655652
351.0,0.17267371978996382
352.0,0.17380287188225482
353.0,0.17487303054470202
354.0,0.17605270390284591
355.0,0.17721147560898495
356.0,0.17848656844607363
357.0,0.18020992943744626
358.0,0.18148793161770801
359.0,0.18269463309610828
360.0,0.18416571944521876
361.0,0.18584337493020703
362.0,0.1871569834065469
363.0,0.1882679625208196
364.0,0.18947042875838002
365.0,0.1909673453897447
366.0,0.19236367165489335
367.0,0.19376016032918347
368.0,0.1953285552468636
369.0,0.19663014873311221
370.0,0.19828416095435175
371.0,0.20004160582451944
372.0,0.20120456116316315
373.0,0.2028296118488752
374.0,0.2046766342225306
375.0,0.2064333122837912
376.0,0.2079278342270679
377.0,0.20935813331248587
378.0,0.21097792729611323
379.0,0.21284110652427102
380.0,0.21460681164822218
381.0,0.21592529827726076
382.0,0.21741328106655544
383.0,0.21956111368946618
384.0,0.22121165453858796
385.0,0.22297241311545643
386.0,0.22474599971032524
387.0,0.22616090913177728
388.0,0.22754959166216518
389.0,0.22892304241715286
390.0,0.23038645391150483
391.0,0.2320958830652216
392.0,0.23354962238685628
393.0,0.23508015444692404
394.0,0.23675508329806372
395.0,0.23800422065633295
396.0,0.23975163428491214
397.0,0.2413377310130239
398.0,0.24230794033684752
399.0,0.24365341664401605
400.0,0.2447349217568392
401.0,0.24574318749156857
402.0,0.24704888149685025
403.0,0.24813887974719542
404.0,0.2490952579702635
405.0,0.25009083338290855
406.0,0.25131694495297086
407.0,0.2525280395573011
408.0,0.25379482181624113
409.0,0.25514486482151355
410.0,0.2564547512837397
411.0,0.2576699218093789
412.0,0.25888732378622553
413.0,0.26017777533587766
414.0,0.26137291119744815
415.0,0.26255702751208276
416.0,0.26381720960939437
417.0,0.2651883666819727
418.0,0.26639255720429056
419.0,0.2675314224128017
420.0,0.2687272270519425
421.0,0.27007653595418135
422.0,0.2714311125974321
423.0,0.27277020081784736
424.0,0.274093756778731
425.0,0.2753620945070189
426.0,0.2767102573613676
427.0,0.27813731270619646
428.0,0.27958478619301547
429.0,0.28099084850416356
430.0,0.28245899722500784
431.0,0.2839909986320625
432.0,0.28550708258934754
433.0,0.28694124668436827
434.0,0.2883444158455871
435.0,0.28973032002926546
436.0,0.2910324583381384
437.0,0.2922873385203187
438.0,0.2935947752049825
439.0,0.2949950541389319
440.0,0.2963114822249029
441.0,0.2976274069617584
442.0,0.29895028944738256
443.0,0.30024069141638354
444.0,0.3014231852767229
445.0,0.30256485422085766
446.0,0.30371883455629856
447.0,0.3048998714106597
448.0,0.3061234915969583
449.0,0.3072985458059643
450.0,0.3083714701152104
451.0,0.30944338544698774
452.0,0.3104887259952687
453.0,0.31152185739573246
454.0,0.3125698926278087
455.0,0.3136374157074887
456.0,0.3146686548952715
457.0,0.3156659837270693
458.0,0.3166873828459236
459.0,0.31768654916884276
460.0,0.318626532328572
461.0,0.31951468292933893
462.0,0.320439916596055
463.0,0.32136112758524077
464.0,0.32229192017571223
465.0,0.32323852650631085
466.0,0.3240732945802487
467.0,0.32497610365463553
468.0,0.3259296470026597
469.0,0.32676312954940834
470.0,0.3276316274956852
471.0,0.3285799883883757
472.0,0.3295464833590615
473.0,0.3303029413711188
474.0,0.331219402456888
475.0,0.33220550500026436
476.0,0.3330879457618243
477.0,0.3339638498395835
478.0,0.33490344609980444
479.0,0.33591978415773377
480.0,0.3369678432124349
481.0,0.33786989329229206
482.0,0.3387880213525563
483.0,0.33980994437651835
484.0,0.3408128279717475
485.0,0.3418155757472441
486.0,0.34281928106020615
487.0,0.3438605306232023
488.0,0.34514893781976264
489.0,0.34624542321082574
490.0,0.347168023339246
491.0,0.34821599042028695
492.0,0.3491723698050287
493.0,0.35018501507932887
494.0,0.3513114081940038
495.0,0.35241954908489054
496.0,0.35352960904063324
497.0,0.35459235447080706
498.0,0.3555916408876612
499.0,0.3566539881389954
500.0,0.3577453837114159
501.0,0.3588520985190159
502.0,0.35996814792979004
503.0,0.3610183938074695
504.0,0.36215130569035725
505.0,0.36336534736063275
506.0,0.3644050679929992
507.0,0.36542857139251284
508.0,0.36647044783678806
509.0,0.36753524125626086
510.0,0.3686229192735555
511.0,0.36976804304033767
512.0,0.3708892036513232
513.0,0.37186474073273246
514.0,0.37295007911684713
515.0,0.3740738836743903
516.0,0.3751540722802626
517.0,0.3761500487685999
518.0,0.37734975782533775
519.0,0.37861578857886213
520.0,0.37972309937577603
521.0,0.3806633263466244
522.0,0.38167509839518393
523.0,0.3827591147128373
524.0,0.38376015599091895
525.0,0.3847565843009563
526.0,0.3858172614303439
527.0,0.38694481320415103
528.0,0.388043349570893
529.0,0.38911232467503476
530.0,0.3901416859891671
531.0,0.39114683312713605
532.0,0.3921404258986888
533.0,0.39316787128513925
534.0,0.3942557336260931
535.0,0.3954073030447718
536.0,0.39646094477874433
537.0,0.39749520034605035
538.0,0.39858006653834327
539.0,0.3996649374717262
540.0,0.400717410935258
541.0,0.4017954500269549
542.0,0.40296081149882357
543.0,0.4041182401155562
544.0,0.40522342132265693
545.0,0.40630393870554476
546.0,0.40743189025602966
547.0,0.4085603661546577
548.0,0.4097084966718642
549.0,0.4108877932188417
550.0,0.4120801146548803
551.0,0.41321510029017483
552.0,0.4143262634768762
553.0,0.41548105084118836
554.0,0.4166843707730306
555.0,0.4178549287302336
556.0,0.4189843774929689
557.0,0.4201458610735419
558.0,0.42125484218778697
559.0,0.42237126231945255
560.0,0.42353678712452014
561.0,0.424679488189311
562.0,0.42577092836007735
563.0,0.42682073988986285
564.0,0.42785087580958053
565.0,0.42881012406883406
566.0,0.42974923374216634
567.0,0.4307175757964323
568.0,0.43175009101503764
569.0,0.43283783527255343
570.0,0.4339115331419983
571.0,0.434917572803378
572.0,0.4359442568683638
573.0,0.43692221427443234
574.0,0.4378017726577179
575.0,0.4385783806886407
576.0,0.4395076249789494
577.0,0.4405177338055951
578.0,0.441504649582035
579.0,0.4423874768799907
580.0,0.44330057812686824
581.0,0.4441942834904881
582.0,0.4449952097548584
583.0,0.4457354661249595
584.0,0.4464297583296144
585.0,0.4471491405879139
586.0,0.4479650420756358
587.0,0.44853863197393923
588.0,0.4489756503013525
589.0,0.44946541509030935
590.0,0.45021104193227535
591.0,0.4509888008241328
592.0,0.45167497710037235
593.0,0.45224974970107656
594.0,0.45283703561143784
595.0,0.4534542328568244
596.0,0.45408973175871153
597.0,0.4547176167193617
598.0,0.4553586949561196
599.0,0.45599704591749635
600.0,0.4565994881994985
601.0,0.4571058901143687
602.0,0.4576072293025847
603.0,0.4581385690027245
604.0,0.4586848405509745
605.0,0.4590876374223561
606.0,0.4594860303068757
607.0,0.45995562080211116
608.0,0.46048125777484944
609.0,0.46091017856761485
610.0,0.46128109259646444
611.0,0.4616648591011054
612.0,0.4620953685024691
613.0,0.4625946311375781
614.0,0.46307440527261184
615.0,0.4634187383370653
616.0,0.4637352908553505
617.0,0.4641223570677516
618.0,0.4645630710618306
619.0,0.4649162925695381
620.0,0.46525785258394065
621.0,0.4655671149577417
622.0,0.46584940727272767
623.0,0.46627816969426145
624.0,0.46660277905006137
625.0,0.4668480156033325
626.0,0.4671753770184479
627.0,0.46734978282176975
628.0,0.46749907135560786
629.0,0.4677489903178437
630.0,0.46815468959294626
631.0,0.4686688255871705
632.0,0.469199738187306
633.0,0.469661262743368
634.0,0.4700379915997536
635.0,0.4703860691110491
636.0,0.47075439655001394
637.0,0.47117080441421083
638.0,0.4715538556533782
639.0,0.47188320197480277
640.0,0.47217077193955187
641.0,0.47245649146428753
642.0,0.47275526445058663
643.0,0.47306693217663864
644.0,0.4733740186157408
645.0,0.4736232855851645
646.0,0.47371380558860315
647.0,0.47373900449076656
648.0,0.4739421054736917
649.0,0.47426865413491487
650.0,0.47465356950083326
651.0,0.47500004696557285
652.0,0.47516062416025556
653.0,0.47545969460065685
654.0,0.4757145362600523
655.0,0.47569028772542044
656.0,0.4758507735355545
657.0,0.47621678841285087
658.0,0.47659370605664414
659.0,0.47673778317160637
660.0,0.47693006405132293
661.0,0.47715530177892196
662.0,0.4773364168099086
663.0,0.47736055025099017
664.0,0.47746552133862524
665.0,0.4776397424708987
666.0,0.4777723164093719
667.0,0.47779386776469585
668.0,0.47782670833423485
669.0,0.4779220254652543
670.0,0.478046449850842
671.0,0.47814154421496635
672.0,0.4782083379314256
673.0,0.4782606336174447
674.0,0.47830657615128225
675.0,0.4783831062961105
676.0,0.4784414273020376
677.0,0.4784286495475628
678.0,0.4784939063694523
679.0,0.4785304290802519
680.0,0.4785227284145023
681.0,0.4785624867411253
682.0,0.4786170594590714
683.0,0.47864384859541953
684.0,0.4786167391601563
685.0,0.47862417382875055
686.0,0.4778955579089068
687.0,0.47673014390972807
688.0,0.47625194071009097
689.0,0.4766086882241333
690.0,0.47725677577594594
691.0,0.4777653852300541
692.0,0.47788747129510367
693.0,0.4778193184168869
694.0,0.4778035567951654
695.0,0.47797447519198816
696.0,0.4782112738493304
697.0,0.4783921808955628
698.0,0.4783999912921316
699.0,0.47817201539895005
700.0,0.4779046655739155
701.0,0.4777719764367069
702.0,0.4777916965962003
703.0,0.47781906202030594
704.0,0.477755574382723
705.0,0.47764537601428064
706.0,0.4775671938491928
707.0,0.4776332222274703
708.0,0.4775556080474781
709.0,0.4773961745896335
710.0,0.47732161708573223
711.0,0.47724360086926165
712.0,0.4771215507819464
713.0,0.4769628928997234
714.0,0.47680791657386234
715.0,0.47652233581123654
716.0,0.4758618633590082
717.0,0.4748034088607375
718.0,0.47402772677211386
719.0,0.4736129360764253
720.0,0.4738360851778873
721.0,0.4746034656101069
722.0,0.47489703279637735
723.0,0.4746303050726538
724.0,0.4740696094620683
725.0,0.47383138876507425
726.0,0.47377670370673003
727.0,0.4738167777478855
728.0,0.4738623996581608
729.0,0.47382270310691404
730.0,0.4738245723009826
731.0,0.4739668419590773
732.0,0.47429297493766476
733.0,0.4747635560906953
734.0,0.47501074213508115
735.0,0.4750126582740251
736.0,0.4749673182291821
737.0,0.4749727392469562
738.0,0.47512311106150557
739.0,0.4753461094230613
740.0,0.47534348884585087
741.0,0.47544640545381134
742.0,0.4755824639436737
743.0,0.4756337446695196
744.0,0.47567403142551684
745.0,0.4757263317778647
746.0,0.4757948373569414
747.0,0.47587569417928066
748.0,0.47600131713340127
749.0,0.4761166650871108
750.0,0.47618927069662703
751.0,0.4762240228643473
752.0,0.4762858944263954
753.0,0.47634531446816325
754.0,0.4763856203024313
755.0,0.47646736070884554
756.0,0.4765818796465898
757.0,0.4766836381569297
758.0,0.476606309673052
759.0,0.47537115442463884
760.0,0.4723265563414917
761.0,0.4677354539709706
762.0,0.468179247309547
763.0,0.4687886095412327
764.0,0.4702209310051689
765.0,0.47246631609476997
766.0,0.4745859871825757
767.0,0.47603392175870823
768.0,0.47690669398553664
769.0,0.4773481673999896
770.0,0.4775593112018854
771.0,0.4778106454145127
772.0,0.4780759501143827
773.0,0.47820771741676404
774.0,0.4783013579163297
775.0,0.47836703460576074
776.0,0.4784353391468418
777.0,0.4785588571800159
778.0,0.47872553617671887
779.0,0.47882408982377117
780.0,0.47885715077727
781.0,0.479087020196979
782.0,0.47924982562303264
783.0,0.4792974648758246
784.0,0.4792893164971203
785.0,0.4794107790408525
786.0,0.4795050476775266
787.0,0.4795305818724414
788.0,0.4795198847868845
789.0,0.4794554642469731
790.0,0.4795023012279498
791.0,0.4796697480234939
792.0,0.4797820869652939
793.0,0.47996946539533836
794.0,0.48018514689667935
795.0,0.4803140749369635
796.0,0.4801520132788957
797.0,0.4802851925768257
798.0,0.48048572147668567
799.0,0.48043547749327303
800.0,0.4805299459791607
801.0,0.48060227821719836
802.0,0.48064591835922216
803.0,0.48074818085124726
804.0,0.48091752845251773
805.0,0.481095628380279
806.0,0.4812182722051992
807.0,0.4812386863228486
808.0,0.4812729602629064
809.0,0.4813333944490311
810.0,0.48137490329233623
811.0,0.4812930133379238
812.0,0.48100007243730647
813.0,0.48061238504299103
814.0,0.4802803481033053
815.0,0.47999489819345365
816.0,0.47991789791715395
817.0,0.47999094086257077
818.0,0.48010583247281313
819.0,0.4806290227026352
820.0,0.4812010493898623
821.0,0.4814081987696798
822.0,0.48093664505048445
823.0,0.4806731307015519
824.0,0.48102117822930374
825.0,0.4816902137974556
826.0,0.48184450453381533
827.0,0.481805289369729
828.0,0.4817311299884332
829.0,0.4817314552863832
830.0,0.4818250032590803
831.0,0.48200944514842364
832.0,0.4821917988164286
833.0,0.48231926327027114
834.0,0.4825854219406382
835.0,0.48283468329132234
836.0,0.48295767991372646
837.0,0.48294447366306936
838.0,0.4831404919281351
839.0,0.4833179337601827
840.0,0.4834386862288375
841.0,0.48361860622137615
842.0,0.48366785159516873
843.0,0.4836777150271071
844.0,0.48372832434350055
845.0,0.4838355788268311
846.0,0.48397218775254314
847.0,0.48404143387809706
848.0,0.48402116015243135
849.0,0.4840473735253419
850.0,0.48407869951666094
851.0,0.48411596658147427
852.0,0.48416339768044453
853.0,0.48420854656229484
854.0,0.4842285277897277
855.0,0.4843118475695086
856.0,0.48451952638877216
857.0,0.4846801682665734
858.0,0.48458979563603916
859.0,0.4844434228027676
860.0,0.4845716198078554
861.0,0.48468710147528615
862.0,0.4847064706810138
863.0,0.4847065958042024
864.0,0.4848477755978593
865.0,0.48486165711112317
866.0,0.4848472122122006
867.0,0.4848976205308141
868.0,0.48501710338023035
869.0,0.48499675570221934
870.0,0.4850142663837113
871.0,0.4851290142225562
872.0,0.4851288157238384
873.0,0.4851977598061464
874.0,0.4853084912474736
875.0,0.4854081946754029
876.0,0.4855007761805158
877.0,0.4856117473873715
878.0,0.4856457858753794
879.0,0.4855617286623246
880.0,0.4855651395288959
881.0,0.4857275265613841
882.0,0.4857943520632321
883.0,0.4856120800431633
884.0,0.48591833415417446
885.0,0.4861271514531
886.0,0.4860978058408123
887.0,0.48597055300233455
888.0,0.4859469637768498
889.0,0.4860967143288761
890.0,0.4862902569749932
891.0,0.4863005719901481
892.0,0.4861058319058073
893.0,0.48587629591964326
894.0,0.485679697259407
895.0,0.48544977507091686
896.0,0.48489484709378705
897.0,0.48452545035200734
898.0,0.48450610722537146
899.0,0.48448618305176
900.0,0.4842775333188808
901.0,0.4842712853747686
902.0,0.48474906236262416
903.0,0.48566734266234574
904.0,0.4859945242561732
905.0,0.4860024543053666
906.0,0.48588252640986235
907.0,0.4854677087688485
908.0,0.4850515085064617
909.0,0.4849492318871861
910.0,0.4851731341345674
911.0,0.4852732478768508
912.0,0.48512251101361376
913.0,0.48471895567381934
914.0,0.48438595521106537
915.0,0.48486829113055135
916.0,0.48522581361659106
917.0,0.48534099062156294
918.0,0.48546188303990945
919.0,0.4860629700957991
920.0,0.4866138424622192
921.0,0.4869624449590658
922.0,0.48705878000483066
923.0,0.4868442127384358
924.0,0.48694194838426264
925.0,0.48695548909443814
926.0,0.4865435519126692
927.0,0.4862402368622244
928.0,0.48558089308551666
929.0,0.4843730984997161
930.0,0.4827194357345537
931.0,0.4814432452155538
932.0,0.479508415360301
933.0,0.47760753837637526
934.0,0.4768137011129042
935.0,0.4765323704692065
936.0,0.47775144907780775
937.0,0.47935268699884176
938.0,0.48019943680605354
939.0,0.48026284644822365
940.0,0.4807929847408085
941.0,0.48135702040306794
942.0,0.4814652786841331
943.0,0.48150176263951405
944.0,0.48100409148629836
945.0,0.4802067113354631
946.0,0.47975418332165426
947.0,0.4805365070047874
948.0,0.48032818206968264
949.0,0.48064916937888286
950.0,0.4823829064286049
951.0,0.4832697700710906
952.0,0.4828385503517051
953.0,0.4820890354511781
954.0,0.4820560711722173
955.0,0.482941219078871
956.0,0.48404490690645935
957.0,0.4840908934451239
958.0,0.48344902482175134
959.0,0.4849008768016431
960.0,0.4855277826366951
961.0,0.48564009789856777
962.0,0.48592246865302613
963.0,0.4865844957730149
964.0,0.4873609744640193
965.0,0.4875931133685274
966.0,0.4878055927455171
967.0,0.4895623633249832
968.0,0.4905665761391159
969.0,0.4907124210508398
970.0,0.4905122862352244
971.0,0.4906160956007068
972.0,0.49026222161908406
973.0,0.4905490577783508
974.0,0.49136148751248016
975.0,0.49140425747138095
976.0,0.49082804285453885
977.0,0.4902527634724367
978.0,0.4901703259803714
979.0,0.4907979805072652
980.0,0.4921664669598608
981.0,0.49269250842365914
982.0,0.4921883095541952
983.0,0.4916473209173801
984.0,0.4930013923172433
985.0,0.4935219867271741
986.0,0.49327706338492455
987.0,0.49336195782281833
988.0,0.49350567429275966
989.0,0.4941304446269276
990.0,0.4942677986171201
991.0,0.4934102088224432
992.0,0.49326045246279165
993.0,0.4939663689101811
994.0,0.49433608055016204
995.0,0.4936166863703342
996.0,0.4926725217297436
997.0,0.4949769042446269
998.0,0.4964708679413783
999.0,0.49503149778308647
1000.0,0.4933740191931348
1001.0,0.4972356863150911
1002.0,0.4977470677421288
1003.0,0.49788890061794866
1004.0,0.4975730892220288
1005.0,0.4977452957652179
1006.0,0.4982591992687401
1007.0,0.4985239068409858
1008.0,0.4989563074125532
1009.0,0.49909704646892034
1010.0,0.4989001615484007
1011.0,0.4989636009096719
1012.0,0.49949057433719257
1013.0,0.49957785934866217
1014.0,0.49986039270587823
1015.0,0.5005625313195671
1016.0,0.5006866255759933
1017.0,0.5003677317315022
1018.0,0.5004043013123753
1019.0,0.5002035854900803
1020.0,0.5001438479008705
1021.0,0.5001451027307161
1022.0,0.5006791537948395
1023.0,0.500669364142265
1024.0,0.5006368060962613
1025.0,0.5006812381060842
1026.0,0.5007279905622296
1027.0,0.5010379692993754
1028.0,0.5009679497302455
1029.0,0.5007626935695108
1030.0,0.5004770334106383
1031.0,0.500255463973166
1032.0,0.4999137695469528
1033.0,0.49984369431027764
1034.0,0.4999702252833349
1035.0,0.5000855887536072
1036.0,0.5002686829608233
1037.0,0.500496682036608
1038.0,0.5007938117912498
1039.0,0.5009190780495005
1040.0,0.5008282052706102
1041.0,0.5007054768207913
1042.0,0.500472934414341
1043.0,0.4999706330824438
1044.0,0.4996932780466444
1045.0,0.4998137812204014
1046.0,0.4999735129554729
1047.0,0.500490883424668
1048.0,0.5007541383530955
1049.0,0.5009205854145335
1050.0,0.5011478227474437
1051.0,0.5013924203249485
1052.0,0.5014851254289797
1053.0,0.5017094743280821
1054.0,0.5016655663790558
1055.0,0.5015626710023962
1056.0,0.501654393737561
1057.0,0.5014390042076574
1058.0,0.5014820213045
1059.0,0.5014252716491913
1060.0,0.5015785905090485
1061.0,0.5020221327582902
1062.0,0.5018960716759902
1063.0,0.5017539488129302
1064.0,0.5015164729362939
1065.0,0.5010881487260648
1066.0,0.500874983230523
1067.0,0.5010256824520438
1068.0,0.5009403600379526
1069.0,0.5009129159385248
1070.0,0.5007418051128384
1071.0,0.5007297369587665
1072.0,0.5011505514581092
1073.0,0.5013381386283053
1074.0,0.5012081745212638
1075.0,0.5009944382387563
1076.0,0.5009803505842904
1077.0,0.5010951256087824
1078.0,0.5012222612672088
1079.0,0.5015092115544628
1080.0,0.5017942949192128
1081.0,0.501790797045711
1082.0,0.502062808434968
1083.0,0.502513525283557
1084.0,0.5025758324270748
1085.0,0.5024254959007618
1086.0,0.5020756940763775
1087.0,0.5017609615866061
1088.0,0.5020101792581905
1089.0,0.5024999127849912
1090.0,0.502737439647213
1091.0,0.502802562884115
1092.0,0.5026714663265015
1093.0,0.502450566510357
1094.0,0.502185880174023
1095.0,0.5019161528732035
1096.0,0.5017653024298141
1097.0,0.5016696583132388
1098.0,0.501812070086331
1099.0,0.5025302997017826
1100.0,0.5027741453127861
1101.0,0.5027153349021252
1102.0,0.5026406811843367
1103.0,0.5023294033777425
1104.0,0.50255873943894
1105.0,0.5026693259370317
1106.0,0.5026686722402021
1107.0,0.5029101614491808
1108.0,0.5026834742553808
1109.0,0.502473333550063
1110.0,0.5022935301485328
1111.0,0.5020577948778204
1112.0,0.5015710789405102
1113.0,0.5012606069755895
1114.0,0.5010088511336985
1115.0,0.5003829517934014
1116.0,0.49936421382228324
1117.0,0.4982446891769578
1118.0,0.49725317343409264
1119.0,0.49688591273456084
1120.0,0.49627943960401233
1121.0,0.49574765188491826
1122.0,0.49566987546862473
1123.0,0.4951905284109047
1124.0,0.495622517463242
1125.0,0.49642705847568036
1126.0,0.49666146787097876
1127.0,0.49645679434412593
1128.0,0.49679528358840985
1129.0,0.4971957155319428
1130.0,0.4971512274272835
1131.0,0.4977671081217167
1132.0,0.497653653425196
