Wavelength (nm),Reflectance
350.0,0.14678708922948264
351.0,0.1473740713071746
352.0,0.14806806371789644
353.0,0.14864186097026924
354.0,0.14940824053073637
355.0,0.15011839217240366
356.0,0.15091781527244125
357.0,0.15227279128038015
358.0,0.15332445131556197
359.0,0.15425845224425802
360.0,0.15522315994864502
361.0,0.15603813485603138
362.0,0.15686079286670293
363.0,0.15772906455331814
364.0,0.1586269747000585
365.0,0.15948583277407685
366.0,0.16045741263374147
367.0,0.16146423407798755
368.0,0.16240608634536122
369.0,0.16345978873970496
370.0,0.16458775054194782
371.0,0.16560213241321003
372.0,0.16633878778809863
373.0,0.1676738876093048
374.0,0.16913564025981676
375.0,0.17031217562547854
376.0,0.17111100954647704
377.0,0.17216584148755762
378.0,0.17323947687481636
379.0,0.17421374952199722
380.0,0.1755763370593277
381.0,0.17656044731058892
382.0,0.1775801721140565
383.0,0.1790776000804793
384.0,0.18016862243109752
385.0,0.18135383672904845
386.0,0.18249068359851792
387.0,0.1832507945398595
388.0,0.18432204702156127
389.0,0.18520686617185417
390.0,0.18597939581932213
391.0,0.18722192270331825
392.0,0.18829321247299208
393.0,0.18932513581614555
394.0,0.19036545201367575
395.0,0.191122838702626
396.0,0.19218405262897975
397.0,0.19321055650049296
398.0,0.1939217932812892
399.0,0.19476349735074205
400.0,0.19530956715697428
401.0,0.19577993065295074
402.0,0.19653407361580025
403.0,0.19724740458836243
404.0,0.19792662575418624
405.0,0.19866099247477645
406.0,0.19956625019714902
407.0,0.20030580537001333
408.0,0.20108342921947325
409.0,0.20198915436744547
410.0,0.2027841354801047
411.0,0.2034906390080464
412.0,0.20419524036366274
413.0,0.20495616113539905
414.0,0.20565613941815755
415.0,0.2064298692268978
416.0,0.2072611591511901
417.0,0.20805810659892002
418.0,0.20882428218663796
419.0,0.20959867250819927
420.0,0.2104093236677299
421.0,0.21126702606931766
422.0,0.21209815814002536
423.0,0.21291091627790656
424.0,0.2137357012802424
425.0,0.21460472933012642
426.0,0.21550185115748177
427.0,0.21644749812646816
428.0,0.21745495939426362
429.0,0.21845464566602676
430.0,0.21942376127173102
431.0,0.2203623019110297
432.0,0.22128934975059408
433.0,0.2222202981884443
434.0,0.22307755990986555
435.0,0.22386614711201452
436.0,0.22471705070545375
437.0,0.22555374286274846
438.0,0.22644053819929447
439.0,0.22740294878370518
440.0,0.2282569946599345
441.0,0.2290482957851444
442.0,0.22984156299803038
443.0,0.23069103579673458
444.0,0.23151024999961797
445.0,0.23224237177289614
446.0,0.23291620337126595
447.0,0.23364515268266225
448.0,0.23441819869870467
449.0,0.23515633309193587
450.0,0.23582167093996056
451.0,0.23652557223422302
452.0,0.23718972348831108
453.0,0.2378570546276996
454.0,0.23858201227905992
455.0,0.23918378007532032
456.0,0.23976961964547033
457.0,0.24039018065119322
458.0,0.2410214306495065
459.0,0.24163891347975813
460.0,0.24223446735682563
461.0,0.24281471387368855
462.0,0.24340969285539635
463.0,0.24393975167566714
464.0,0.24447600617735135
465.0,0.2450932215142999
466.0,0.24560334760467487
467.0,0.24615882006415796
468.0,0.24677632746281525
469.0,0.24734887503585096
470.0,0.24783286818687922
471.0,0.24834326408491045
472.0,0.24892085183127927
473.0,0.2494269142930521
474.0,0.25003296757157845
475.0,0.2506499204592943
476.0,0.2511739982738305
477.0,0.25177515732246764
478.0,0.2523710592151852
479.0,0.2529554889299135
480.0,0.25357151257794946
481.0,0.2541505086740267
482.0,0.2547605031221877
483.0,0.25543094847424136
484.0,0.256088440888636
485.0,0.2568295356832602
486.0,0.25756783371778535
487.0,0.2582169795011556
488.0,0.25892906410280675
489.0,0.2595941498625741
490.0,0.2602169490985501
491.0,0.2608805613118007
492.0,0.2615772523670009
493.0,0.26227034933206766
494.0,0.26296598304160995
495.0,0.2637423590156635
496.0,0.26450768497128324
497.0,0.2652090584076895
498.0,0.2658525434410268
499.0,0.26658255985830714
500.0,0.26738097135227085
501.0,0.26816649803909814
502.0,0.26884217832554014
503.0,0.26955620936356234
504.0,0.2703320077380783
505.0,0.27111798750065524
506.0,0.2717782811163383
507.0,0.2725064989474276
508.0,0.2732768669238799
509.0,0.27402616305958094
510.0,0.2747743192718385
511.0,0.27558392847893365
512.0,0.2763773476016814
513.0,0.27701467395859763
514.0,0.27768216413633695
515.0,0.27845863295126777
516.0,0.27931046251856995
517.0,0.2800354440973473
518.0,0.2808493928011147
519.0,0.2816617208887277
520.0,0.282348527878011
521.0,0.28301579460464965
522.0,0.2837344936014114
523.0,0.2844841036719551
524.0,0.28518727453171633
525.0,0.28590572403496994
526.0,0.28668013200802567
527.0,0.28748054317319927
528.0,0.2881675713122155
529.0,0.28887179371023586
530.0,0.28958484606228635
531.0,0.29028778357646357
532.0,0.29103230569757155
533.0,0.29179636137445786
534.0,0.2925581080884933
535.0,0.2933051376605783
536.0,0.2940409214309783
537.0,0.29477894238469626
538.0,0.29553690676463207
539.0,0.2963163651440778
540.0,0.2970861115795503
541.0,0.2978377277767502
542.0,0.2985768552156339
543.0,0.2993149983740966
544.0,0.300052254838767
545.0,0.3007871713707145
546.0,0.30151229519385037
547.0,0.30226596611407835
548.0,0.303015551873787
549.0,0.30374602118031063
550.0,0.30451381966706487
551.0,0.3053067136280701
552.0,0.30611847305588846
553.0,0.30694099215160087
554.0,0.3077733681905757
555.0,0.3085904321629548
556.0,0.30941254621212544
557.0,0.31030599449666835
558.0,0.3111814819028662
559.0,0.3120207392065705
560.0,0.3128198021527024
561.0,0.3135772275255919
562.0,0.3142999874929313
563.0,0.31501510213860406
564.0,0.315747712483311
565.0,0.3164439161591709
566.0,0.3171299303202597
567.0,0.31780727550012866
568.0,0.3184391302185327
569.0,0.3191883996805505
570.0,0.3199331208288217
571.0,0.32055222086124024
572.0,0.321201162499353
573.0,0.32181255821632077
574.0,0.32239650501342143
575.0,0.3230040145598811
576.0,0.3236286335140565
577.0,0.3242626660898437
578.0,0.32486968584849457
579.0,0.3253736658309799
580.0,0.3259483084839128
581.0,0.32656712560591816
582.0,0.32715841892948755
583.0,0.32772046142111166
584.0,0.328237477179141
585.0,0.3287485402787612
586.0,0.32931122690282927
587.0,0.32974722361961684
588.0,0.33016758881076874
589.0,0.3306424868989729
590.0,0.33106687204165725
591.0,0.33148465211364986
592.0,0.33186979139281647
593.0,0.3322107356521717
594.0,0.3325818579767485
595.0,0.3329534111294817
596.0,0.33329354954805906
597.0,0.3335880274357622
598.0,0.3339982249833161
599.0,0.33443979427882875
600.0,0.33483531798786004
601.0,0.3352339029589165
602.0,0.335544639877121
603.0,0.3358350826389214
604.0,0.3361982589045611
605.0,0.33649527702158644
606.0,0.3367572861956873
607.0,0.3370288080023156
608.0,0.3373532777028392
609.0,0.33763059126155537
610.0,0.33785495714941294
611.0,0.33806233611069464
612.0,0.33834144948777123
613.0,0.3386434975297188
614.0,0.3389370348425596
615.0,0.33919958578063525
616.0,0.33943050399728364
617.0,0.33966689308217557
618.0,0.339914444967334
619.0,0.3401430623969762
620.0,0.3403494749811036
621.0,0.3405212492378012
622.0,0.34068195276641794
623.0,0.34098489602289267
624.0,0.3412324413373389
625.0,0.34142793863942905
626.0,0.3416812199426956
627.0,0.3418762862140312
628.0,0.34204407996724334
629.0,0.34222660419518225
630.0,0.3424572911499024
631.0,0.34268103310580844
632.0,0.3429138133066628
633.0,0.3431661901535144
634.0,0.34335789357245206
635.0,0.34353527091263325
636.0,0.3437395156044449
637.0,0.3439922621817978
638.0,0.34418599991348375
639.0,0.3443566978724466
640.0,0.3445304799685636
641.0,0.3446772148479869
642.0,0.3447702357854031
643.0,0.3448881502763518
644.0,0.3450980873803102
645.0,0.34527946826307054
646.0,0.34533908038128713
647.0,0.34534755837159037
648.0,0.3454956567393229
649.0,0.34565647513507836
650.0,0.34582103417162896
651.0,0.3459665183096738
652.0,0.34599826095336156
653.0,0.34619898326872717
654.0,0.34641978478352664
655.0,0.3464369849247583
656.0,0.34649213878318946
657.0,0.34656638267440065
658.0,0.3466272208677174
659.0,0.3466609878939767
660.0,0.34671368304276023
661.0,0.3467698724907679
662.0,0.3467940931502631
663.0,0.34671393183896543
664.0,0.3467537046719645
665.0,0.34684438450261457
666.0,0.3468291375964009
667.0,0.34675979026732273
668.0,0.3466929957323432
669.0,0.34666965345571255
670.0,0.34670632491189207
671.0,0.3467126314633876
672.0,0.34670085948364576
673.0,0.34669476565374463
674.0,0.3466955052924634
675.0,0.3466703243620202
676.0,0.3466335994570911
677.0,0.3466137149358113
678.0,0.3465963584627585
679.0,0.34654507346866104
680.0,0.3464895651649959
681.0,0.3465226062389818
682.0,0.3465753827566334
683.0,0.346614336011779
684.0,0.34663636218244875
685.0,0.3467022615205072
686.0,0.3467380109579098
687.0,0.3467329772524768
688.0,0.34672541365445336
689.0,0.3468299691792307
690.0,0.3470488023402147
691.0,0.3472414977060792
692.0,0.3471721828535431
693.0,0.34720367472530433
694.0,0.3473381840869925
695.0,0.34747765945900677
696.0,0.3474428497759704
697.0,0.34745338860792285
698.0,0.3474936999361113
699.0,0.3474640228531537
700.0,0.3473573724389453
701.0,0.34728087141694586
702.0,0.3472609246053548
703.0,0.34723143436840614
704.0,0.3471869888311853
705.0,0.34711714386894765
706.0,0.3470256039146955
707.0,0.34695126153120376
708.0,0.34684380688949595
709.0,0.34671178174859796
710.0,0.34659594402998195
711.0,0.3465773124027023
712.0,0.34648865057003153
713.0,0.3463315957767614
714.0,0.34627099978739767
715.0,0.34624027642498084
716.0,0.3461053279923232
717.0,0.34583460954815975
718.0,0.3457217238562604
719.0,0.34563583504449347
720.0,0.3455864615947853
721.0,0.3455907483990924
722.0,0.34552229005841895
723.0,0.3454514968850036
724.0,0.34537345878093934
725.0,0.34523853408464134
726.0,0.3451272315075111
727.0,0.3451031252869577
728.0,0.3451348089296745
729.0,0.34503775848941814
730.0,0.344935780655932
731.0,0.3448654249189001
732.0,0.3448354228284024
733.0,0.3448569421120554
734.0,0.3448788933463694
735.0,0.3448832811252845
736.0,0.3448675613319331
737.0,0.3447459022481929
738.0,0.34474821769676517
739.0,0.3448855612407916
740.0,0.34480743944975367
741.0,0.3448056699606517
742.0,0.3448170305205279
743.0,0.3447644783397403
744.0,0.34481361003087135
745.0,0.34482896704552135
746.0,0.34479504843445996
747.0,0.3447691187925494
748.0,0.34483381242741123
749.0,0.34492353073170945
750.0,0.3449833706567279
751.0,0.34499081719533037
752.0,0.3450127231507975
753.0,0.34501951603869896
754.0,0.3450014752325095
755.0,0.34504068304120455
756.0,0.3451000341697342
757.0,0.3451771900333767
758.0,0.3452706692864435
759.0,0.3453204219261553
760.0,0.34526540159492586
761.0,0.34490552086901305
762.0,0.3445188552926995
763.0,0.34479999926461863
764.0,0.3450952306654643
765.0,0.3451597520284659
766.0,0.3452854936181931
767.0,0.3454719834412669
768.0,0.3456024239186832
769.0,0.345614637236149
770.0,0.34557843776974306
771.0,0.345655167866653
772.0,0.3457929414377023
773.0,0.3458515119338804
774.0,0.34587660105688517
775.0,0.3458951332766878
776.0,0.34592201448485643
777.0,0.3459606184265039
778.0,0.34604097884713425
779.0,0.34608943355654576
780.0,0.3460988924718281
781.0,0.34623223366823175
782.0,0.34629757277783324
783.0,0.34627950158742193
784.0,0.34624848797192853
785.0,0.3463688000755475
786.0,0.346459948456596
787.0,0.3464828244268412
788.0,0.34649172440029347
789.0,0.3465129096727987
790.0,0.34655901064222205
791.0,0.3466332463611639
792.0,0.34672958398473236
793.0,0.3468257998506389
794.0,0.34690448740913915
795.0,0.346939288569156
796.0,0.34686970549162055
797.0,0.3469693409155402
798.0,0.34708341733432385
799.0,0.34703428715889073
800.0,0.34711089100236103
801.0,0.34715777935947983
802.0,0.3471530306617711
803.0,0.34716031037961714
804.0,0.34720812076759344
805.0,0.34730091991199696
806.0,0.3473924539203242
807.0,0.347402222011003
808.0,0.34743234287124425
809.0,0.3474818065861235
810.0,0.3475306413033133
811.0,0.347560975144555
812.0,0.34756598401064165
813.0,0.3475606031445711
814.0,0.34756428218242935
815.0,0.34757928685318945
816.0,0.347647293789664
817.0,0.347697607733974
818.0,0.34766197020996575
819.0,0.3477932946847889
820.0,0.34797182144617034
821.0,0.34802744083611464
822.0,0.3478223580782415
823.0,0.34782518006649576
824.0,0.34796658344609327
825.0,0.3480796477628912
826.0,0.34803772787544873
827.0,0.347997768928034
828.0,0.34804379776165073
829.0,0.3481629835740454
830.0,0.34816061639528506
831.0,0.34816542757909713
832.0,0.348197133595051
833.0,0.3482379494027757
834.0,0.3482661033115758
835.0,0.3482595399187906
836.0,0.3482484852431127
837.0,0.348280674780924
838.0,0.34835996716140993
839.0,0.34838454149381953
840.0,0.3483906030420389
841.0,0.34849667422701275
842.0,0.3484823975030981
843.0,0.3484002355747449
844.0,0.3483503348729084
845.0,0.34843256777968734
846.0,0.348531255857383
847.0,0.34855374890493424
848.0,0.34849096282718833
849.0,0.34847478922335634
850.0,0.34849153795147836
851.0,0.3485164520149731
852.0,0.3485380660551791
853.0,0.34860727120852847
854.0,0.34868040549077495
855.0,0.3486967815063711
856.0,0.348651625317497
857.0,0.348768131905341
858.0,0.34874531596025365
859.0,0.34866073157183886
860.0,0.3487448834519614
861.0,0.3487748413282463
862.0,0.348743766675691
863.0,0.3487139355319083
864.0,0.34877920425884246
865.0,0.3489020926845354
866.0,0.3489104695394715
867.0,0.3488211481984622
868.0,0.3488745124153226
869.0,0.34880281349331105
870.0,0.34874019727064515
871.0,0.3487830826254633
872.0,0.34887116022782655
873.0,0.3489035232699971
874.0,0.3489942292632634
875.0,0.34916853834143124
876.0,0.3491496624298146
877.0,0.34911378353342537
878.0,0.3491043508993174
879.0,0.34912437975325106
880.0,0.3491865174951466
881.0,0.3491466192174653
882.0,0.3490140471817452
883.0,0.3489216090927043
884.0,0.34921195048443326
885.0,0.34935848850745005
886.0,0.3493168731191998
887.0,0.3492856533496431
888.0,0.3492658888624413
889.0,0.3492718335251446
890.0,0.3493765629863168
891.0,0.34960989512061047
892.0,0.34951634772754375
893.0,0.34946116249192405
894.0,0.3495603832393089
895.0,0.349645054768994
896.0,0.34952873198106404
897.0,0.349508887292019
898.0,0.3497238162005135
899.0,0.3499979070627932
900.0,0.34969416851673757
901.0,0.3495530720202901
902.0,0.3498381948981735
903.0,0.3500656682419106
904.0,0.35009970819032665
905.0,0.34997932889967553
906.0,0.3498937112932954
907.0,0.35014949106531296
908.0,0.35011277062513213
909.0,0.3500876481895224
910.0,0.35028104567845625
911.0,0.3504136075717924
912.0,0.3503970041720206
913.0,0.350011632736573
914.0,0.34962865649540853
915.0,0.3505643716200928
916.0,0.3506763283716523
917.0,0.3503967379448545
918.0,0.3503714045295905
919.0,0.35041405557126176
920.0,0.35049367148204413
921.0,0.35065694409283443
922.0,0.3508196604879819
923.0,0.3505886632267325
924.0,0.35073945500223697
925.0,0.35081678175613407
926.0,0.3504815899053923
927.0,0.3505328768823382
928.0,0.35058219473109936
929.0,0.35045207312609017
930.0,0.3501768840168343
931.0,0.35033428028124053
932.0,0.35011674350181504
933.0,0.3494987328289529
934.0,0.3488983535611936
935.0,0.3487468930458977
936.0,0.34895585859776007
937.0,0.3495004173472393
938.0,0.3499496971860044
939.0,0.3490686274309433
940.0,0.34938325216406074
941.0,0.34990468282891707
942.0,0.34981023292102925
943.0,0.3506847120102851
944.0,0.3505798702231052
945.0,0.3500766124541402
946.0,0.3500022487213665
947.0,0.3497679553291728
948.0,0.3495307143461896
949.0,0.349865485907928
950.0,0.3507842446977058
951.0,0.3510771934253428
952.0,0.35026278972451547
953.0,0.34957079669250896
954.0,0.3499224468904119
955.0,0.3507994217136702
956.0,0.35149927680020066
957.0,0.3510854691936579
958.0,0.35021296921848893
959.0,0.35166912431575004
960.0,0.35176623610290153
961.0,0.35114570218420127
962.0,0.3509365353244004
963.0,0.3515213879007167
964.0,0.3517005472643711
965.0,0.3513815310908684
966.0,0.35129617628629184
967.0,0.35254192250057736
968.0,0.35302163580608553
969.0,0.35263251987687594
970.0,0.35201702025066334
971.0,0.3520718176373532
972.0,0.35210477303010346
973.0,0.35217749220906397
974.0,0.3526408317489614
975.0,0.35365385141724764
976.0,0.3527844902661131
977.0,0.35199277383296934
978.0,0.3520670343497298
979.0,0.3525069950033515
980.0,0.3530920087742738
981.0,0.35353724091888333
982.0,0.3531301763697687
983.0,0.35180798932875595
984.0,0.3529389799572648
985.0,0.3532716937043977
986.0,0.35276288416579704
987.0,0.3526115440938631
988.0,0.35263638011368487
989.0,0.3533754982773593
990.0,0.35374929745250305
991.0,0.35301823651125497
992.0,0.3526136485746775
993.0,0.35300337577859214
994.0,0.35372529153120763
995.0,0.35391134178854655
996.0,0.35280323877162234
997.0,0.35399974605719314
998.0,0.35474069993153046
999.0,0.3535768715421465
1000.0,0.3525827952691403
1001.0,0.3552020186465397
1002.0,0.35601894846516025
1003.0,0.3561505597186513
1004.0,0.35573447729071234
1005.0,0.3559293883951205
1006.0,0.35639595612873504
1007.0,0.35664472285157095
1008.0,0.35728376890504343
1009.0,0.3574046121263677
1010.0,0.3569582842779306
1011.0,0.35658971116974053
1012.0,0.35652156180514266
1013.0,0.3565586247225751
1014.0,0.35680455295760166
1015.0,0.3573348340120544
1016.0,0.3575518180930842
1017.0,0.3575966415874866
1018.0,0.3576377066229806
1019.0,0.35758367012498166
1020.0,0.3575046509167916
1021.0,0.35723336317850735
1022.0,0.3574000180316671
1023.0,0.35736224834721975
1024.0,0.357181582764921
1025.0,0.35722019922799675
1026.0,0.35730586765885713
1027.0,0.35760873924199366
1028.0,0.35767810971703023
1029.0,0.3574077665414854
1030.0,0.3571612392019217
1031.0,0.3570145705622412
1032.0,0.3567064827833626
1033.0,0.3566759062473554
1034.0,0.3569429540553451
1035.0,0.3570980093237477
1036.0,0.35731998930969033
1037.0,0.357443853664101
1038.0,0.3575183626945537
1039.0,0.35780329688466916
1040.0,0.3577636952353861
1041.0,0.35765950653740886
1042.0,0.35752979590775025
1043.0,0.35692333088962913
1044.0,0.3566112321872271
1045.0,0.3568466005450285
1046.0,0.35705378681949473
1047.0,0.357605824633227
1048.0,0.3579167172401559
1049.0,0.35827639247127097
1050.0,0.3584619233049832
1051.0,0.3584946276723248
1052.0,0.35859823092764387
1053.0,0.358625088135402
1054.0,0.3583814829389465
1055.0,0.35847539979870124
1056.0,0.35861486494414424
1057.0,0.3586707478688693
1058.0,0.3587866557509173
1059.0,0.35863638650566665
1060.0,0.3589315934967685
1061.0,0.3592834102510979
1062.0,0.359215600739178
1063.0,0.3592046863711826
1064.0,0.35916697204982034
1065.0,0.3588728234891167
1066.0,0.3588338906052988
1067.0,0.35899410852263763
1068.0,0.3588414705563099
1069.0,0.35881441262033514
1070.0,0.35865650306950664
1071.0,0.35853639417667926
1072.0,0.3589033565116316
1073.0,0.35912005287654614
1074.0,0.3590714303256379
1075.0,0.35906622176996356
1076.0,0.3591695068276319
1077.0,0.35933128419046406
1078.0,0.35953638635176705
1079.0,0.35993349596892643
1080.0,0.360157781388775
1081.0,0.3600302286472124
1082.0,0.360051028932848
1083.0,0.3599831878928682
1084.0,0.3598922244881509
1085.0,0.35990400794534705
1086.0,0.3597022493317061
1087.0,0.35954388169716156
1088.0,0.3597879638364845
1089.0,0.3601852526015609
1090.0,0.3605145646932734
1091.0,0.3607828294112114
1092.0,0.36067047952369374
1093.0,0.360476145629563
1094.0,0.360306306780993
1095.0,0.360095291420227
1096.0,0.35979118729313914
1097.0,0.35984652857198746
1098.0,0.360199174137917
1099.0,0.36060194917955285
1100.0,0.3608581791591038
1101.0,0.3611405541559652
1102.0,0.3612736201365645
1103.0,0.3612758653410371
1104.0,0.3617522858030721
1105.0,0.3618607233273515
1106.0,0.3616478955748416
1107.0,0.36180683561647026
1108.0,0.3617726345590151
1109.0,0.3618802382057783
1110.0,0.3623463337460317
1111.0,0.3625064920169022
1112.0,0.3624532305399755
1113.0,0.3623285993146949
1114.0,0.36240851856202483
1115.0,0.3621974759275558
1116.0,0.36209516898716015
1117.0,0.3622860913830005
1118.0,0.3625446714133787
1119.0,0.36313297469732825
1120.0,0.3633561637486721
1121.0,0.36346405764397516
1122.0,0.36379645241466857
1123.0,0.3637023185674056
1124.0,0.36391683608634645
1125.0,0.3644344903848722
1126.0,0.3645816289905736
1127.0,0.3640833755722253
1128.0,0.3642311310559814
