Wavelength (nm),Reflectance
350.0,0.14745196795334978
351.0,0.14790499231141443
352.0,0.14866472413263535
353.0,0.14938026928283443
354.0,0.15003633916784465
355.0,0.1507406283648767
356.0,0.1516884413474286
357.0,0.1530799245444818
358.0,0.15428610833327616
359.0,0.15525919179620273
360.0,0.15612998298962988
361.0,0.15709951541182746
362.0,0.15814496642239062
363.0,0.15906339174565828
364.0,0.1597832227268788
365.0,0.16066324807092142
366.0,0.16148960958597494
367.0,0.16244003319619124
368.0,0.1636953649351264
369.0,0.1648186129097471
370.0,0.16593374749116369
371.0,0.16698431918848286
372.0,0.16785298302923218
373.0,0.16911574509327484
374.0,0.17044109253914674
375.0,0.1715517667442754
376.0,0.17240906032793854
377.0,0.17351820427009546
378.0,0.1746413714203819
379.0,0.17565479672026016
380.0,0.17696603493143687
381.0,0.17804148505210757
382.0,0.17927942260156365
383.0,0.18099053126409692
384.0,0.18208432653391798
385.0,0.18334212325033716
386.0,0.1845586402889534
387.0,0.18523082979115174
388.0,0.18633258179509676
389.0,0.1874002843621974
390.0,0.1883350975346838
391.0,0.18943226390984474
392.0,0.1904912651441601
393.0,0.1916818396535503
394.0,0.19292333216068314
395.0,0.1936565962090267
396.0,0.19488380513320128
397.0,0.19603737111448405
398.0,0.1966221363786143
399.0,0.19723179455684847
400.0,0.19781782031051923
401.0,0.19845826230834365
402.0,0.19923178851688772
403.0,0.1999773790345591
404.0,0.2007401223386563
405.0,0.20153560890391414
406.0,0.20234284296534363
407.0,0.20309868463270334
408.0,0.20398493892846536
409.0,0.20499654086522945
410.0,0.2057605557093306
411.0,0.20649757069929092
412.0,0.20727641127768498
413.0,0.20809375671865615
414.0,0.2088480875252636
415.0,0.20957276585272244
416.0,0.2103201645675228
417.0,0.21114812110291217
418.0,0.2121193574389067
419.0,0.21296454483871563
420.0,0.21369280296603732
421.0,0.2146251561429254
422.0,0.2155174709751387
423.0,0.216355796281924
424.0,0.21718334274903686
425.0,0.21806129373072847
426.0,0.21895644982415283
427.0,0.21993535011080106
428.0,0.22103935826089316
429.0,0.22203732555251937
430.0,0.22302297090043774
431.0,0.22402220719059418
432.0,0.22499694337955384
433.0,0.22588568901982464
434.0,0.22673135339150377
435.0,0.2275737775211747
436.0,0.2284223358266236
437.0,0.2293296513845331
438.0,0.23032097728651993
439.0,0.23134591142922462
440.0,0.23215884211060148
441.0,0.2329676817719802
442.0,0.23382067142873278
443.0,0.23467416274301237
444.0,0.23549602320054672
445.0,0.2362693733865075
446.0,0.23701835657121026
447.0,0.23780297436599349
448.0,0.23855377755413756
449.0,0.23927848393755052
450.0,0.2399957202769772
451.0,0.24071480892269503
452.0,0.24143554899236647
453.0,0.242182488519952
454.0,0.24295982197367355
455.0,0.2436035505100988
456.0,0.2442103260854858
457.0,0.24483206426419188
458.0,0.24546015337902255
459.0,0.24610530883679022
460.0,0.2467378820022683
461.0,0.2473412653536452
462.0,0.24793684508463218
463.0,0.24851729550140464
464.0,0.2491035053609586
465.0,0.24971657049271076
466.0,0.2503300571841915
467.0,0.25092150464846097
468.0,0.2514908421007104
469.0,0.2520575030085252
470.0,0.2526423181867944
471.0,0.25323353450461594
472.0,0.2537953512245958
473.0,0.2542473497517354
474.0,0.25488115906400477
475.0,0.25557538872219465
476.0,0.2561531869289508
477.0,0.2567757253577412
478.0,0.2573761652289927
479.0,0.2579755334751745
480.0,0.2586410914110044
481.0,0.25922990332404716
482.0,0.25981178582813264
483.0,0.260459066365708
484.0,0.2611919996836598
485.0,0.2620467092312099
486.0,0.2628623293477882
487.0,0.2635085489990945
488.0,0.26423283946410064
489.0,0.264852714374968
490.0,0.26543681575322337
491.0,0.26619128098069395
492.0,0.2669532202270347
493.0,0.2676745418414557
494.0,0.26838045203421257
495.0,0.26918661722078835
496.0,0.2699645219278316
497.0,0.27068911102081333
498.0,0.2713925138692442
499.0,0.2721785787547465
500.0,0.27300944994932186
501.0,0.27383230445558654
502.0,0.27459568863784806
503.0,0.27533944787140824
504.0,0.27612320157783016
505.0,0.27692914041085226
506.0,0.2776233972881917
507.0,0.27839014476231994
508.0,0.279214311474991
509.0,0.2800238467449766
510.0,0.2807356760408465
511.0,0.2815343424426498
512.0,0.2823767631032896
513.0,0.2830887783642632
514.0,0.28378490977634613
515.0,0.28457290799762097
516.0,0.285463300602531
517.0,0.2863025178222672
518.0,0.28714703166385136
519.0,0.28793192267938433
520.0,0.2886113281919947
521.0,0.28932788475684884
522.0,0.2900943700989185
523.0,0.2908562920379367
524.0,0.29153383299424035
525.0,0.29233276501665234
526.0,0.2931977049711106
527.0,0.29403056507253106
528.0,0.29472989405116434
529.0,0.2954444795620519
530.0,0.29618408199469526
531.0,0.2969373382482529
532.0,0.2977320408721014
533.0,0.2985502010344161
534.0,0.2993422383944231
535.0,0.30005529818027
536.0,0.30080086213318163
537.0,0.3015776936396074
538.0,0.3023819068050335
539.0,0.3032209937085389
540.0,0.3040213956943343
541.0,0.30478906273308976
542.0,0.3055635084183074
543.0,0.3063771124154471
544.0,0.3071451767140138
545.0,0.307881065915875
546.0,0.3086738448107865
547.0,0.30945173746059285
548.0,0.3102333178775231
549.0,0.3110389850584659
550.0,0.31186262663782305
551.0,0.31268226952787687
552.0,0.3135212887488637
553.0,0.3144085764772895
554.0,0.315308434036168
555.0,0.3161864552173728
556.0,0.3170522199793484
557.0,0.31795872493207344
558.0,0.31881635170464867
559.0,0.31966086901278973
560.0,0.3205164601140398
561.0,0.32131161514164597
562.0,0.3220581529734575
563.0,0.3228003419585139
564.0,0.32358510406807645
565.0,0.32435689378614035
566.0,0.3250820957679214
567.0,0.32575030150968737
568.0,0.326380288918063
569.0,0.3271220812775223
570.0,0.32789310158332996
571.0,0.32858683767093333
572.0,0.3292580247845205
573.0,0.32990927657836905
574.0,0.3305417126294026
575.0,0.33115756698220855
576.0,0.33178265060459877
577.0,0.3324199777573872
578.0,0.33305022858877686
579.0,0.333628840847336
580.0,0.3342278420985124
581.0,0.3348301431222407
582.0,0.33540122621436225
583.0,0.33593415898067985
584.0,0.3364758330053873
585.0,0.33705188815861237
586.0,0.33765691351981963
587.0,0.33817011750724935
588.0,0.3386656456768159
589.0,0.3391758042320353
590.0,0.33957673711520997
591.0,0.3399769345501828
592.0,0.3403673850003126
593.0,0.34073113878876793
594.0,0.3411269984408015
595.0,0.3415130915184151
596.0,0.3418767002781915
597.0,0.3422406403199346
598.0,0.342644872542534
599.0,0.3430545253724085
600.0,0.34344691413286177
601.0,0.34386909163961765
602.0,0.3442159787125781
603.0,0.34452647255459956
604.0,0.3448741627452772
605.0,0.34516880533165856
606.0,0.3454786590250938
607.0,0.3458188699708541
608.0,0.34614113488569254
609.0,0.3464492283130599
610.0,0.34671309366704584
611.0,0.3469308978040156
612.0,0.34718299986095597
613.0,0.3475063061638449
614.0,0.3478555791134541
615.0,0.348147411994608
616.0,0.34838057020451585
617.0,0.3485961067036138
618.0,0.3488196028331696
619.0,0.3490560464524995
620.0,0.34927571196212803
621.0,0.34949055345194
622.0,0.3497281835736643
623.0,0.3500512220370161
624.0,0.35026147654631634
625.0,0.35040099716056977
626.0,0.35064068476233823
627.0,0.35087217229071826
628.0,0.3510974153045331
629.0,0.3513179649977043
630.0,0.35151723517618516
631.0,0.35178155977798875
632.0,0.35204640128209647
633.0,0.3522439388956228
634.0,0.3524602827023841
635.0,0.3526809481027149
636.0,0.35292086384501165
637.0,0.3531989010012608
638.0,0.35338055180127426
639.0,0.3535209727373981
640.0,0.3536783439320253
641.0,0.3538681830615987
642.0,0.3540107340696314
643.0,0.354125188810187
644.0,0.35426097594679523
645.0,0.3544464031960164
646.0,0.35454935953418504
647.0,0.3545981890477788
648.0,0.3547468926756858
649.0,0.3548906907439055
650.0,0.35505155031243374
651.0,0.3552208261700517
652.0,0.3552890495821763
653.0,0.3554617487163719
654.0,0.3556393573466204
655.0,0.35567292497442377
656.0,0.35574784643983265
657.0,0.3558396151023557
658.0,0.3559078026229614
659.0,0.3559342254839876
660.0,0.35600176125951544
661.0,0.3560629065375522
662.0,0.3560745466030974
663.0,0.3560438423718954
664.0,0.35605879471240953
665.0,0.35610006159139534
666.0,0.35610557901112394
667.0,0.35604646534175244
668.0,0.35596438723488016
669.0,0.3559212701092176
670.0,0.3559812652155609
671.0,0.3559877444066151
672.0,0.3559366795949539
673.0,0.35587215465780364
674.0,0.35587204057168054
675.0,0.3558960016547728
676.0,0.35589179559016587
677.0,0.3558288102089256
678.0,0.3558387232540254
679.0,0.3558275827615427
680.0,0.3557774747350787
681.0,0.355763953904771
682.0,0.35583554587542315
683.0,0.35591520121171044
684.0,0.3559524001324283
685.0,0.35603940308306437
686.0,0.3560688914019026
687.0,0.35604798158761986
688.0,0.35605893757834084
689.0,0.3561896580002133
690.0,0.3564664881747656
691.0,0.3567406476082862
692.0,0.356736954413393
693.0,0.3568668192357179
694.0,0.357033078008764
695.0,0.35710664080466414
696.0,0.35710832513890634
697.0,0.3571459700552789
698.0,0.3571912988217696
699.0,0.357171032944927
700.0,0.35711219876807376
701.0,0.357066147054886
702.0,0.3570535175193827
703.0,0.35705502947421697
704.0,0.35696372141220734
705.0,0.3568345475204966
706.0,0.35674330587620334
707.0,0.35676085851579326
708.0,0.356692929822736
709.0,0.35656521370869754
710.0,0.3564776587291533
711.0,0.3564093553723332
712.0,0.356310713553618
713.0,0.3561878132828652
714.0,0.3560991900963707
715.0,0.3560553907049642
716.0,0.3559244492468824
717.0,0.3556518908703247
718.0,0.355469291276953
719.0,0.3553430295919513
720.0,0.3552987427216872
721.0,0.35532627200206995
722.0,0.35529850825635084
723.0,0.3552453334902315
724.0,0.3551577449831984
725.0,0.35501517657927106
726.0,0.3549550283641773
727.0,0.35491853407726315
728.0,0.3548587828979053
729.0,0.35481365197106957
730.0,0.3547302681364672
731.0,0.354660507491337
732.0,0.35466520485128994
733.0,0.3547281595595349
734.0,0.35475229223942506
735.0,0.35473144481871144
736.0,0.3547120948166359
737.0,0.3546391302772847
738.0,0.35467369886089034
739.0,0.3547902754221526
740.0,0.3546650867775444
741.0,0.35465896192355867
742.0,0.3546926308730894
743.0,0.3546520012002025
744.0,0.3546747438661432
745.0,0.35471987897379986
746.0,0.3547610237729093
747.0,0.35478657440857464
748.0,0.35483892911406434
749.0,0.35490112692176445
750.0,0.35494528380017076
751.0,0.3549418962114102
752.0,0.35497720197559246
753.0,0.35500352074226094
754.0,0.3549916404879209
755.0,0.35501664894754364
756.0,0.3550784478743607
757.0,0.3551375245718526
758.0,0.35515487854361627
759.0,0.35519940708123104
760.0,0.3550851453834575
761.0,0.3545249355012944
762.0,0.35414151754576656
763.0,0.35447171466406985
764.0,0.3548443539672181
765.0,0.3550157485889539
766.0,0.3552915072227131
767.0,0.35545004356939136
768.0,0.355555742522332
769.0,0.35564291087196664
770.0,0.35559299898679836
771.0,0.3556571072369136
772.0,0.3557876057951766
773.0,0.355822514786025
774.0,0.3558766669348372
775.0,0.35594339459330915
776.0,0.3560069763464671
777.0,0.35605517574082973
778.0,0.3561343638571834
779.0,0.3561882349600964
780.0,0.35620021074927827
781.0,0.3562649590252641
782.0,0.3563744065288031
783.0,0.3564506295083843
784.0,0.3564421600997202
785.0,0.35648514358206684
786.0,0.3565617573321797
787.0,0.35662503709020554
788.0,0.35662897070167604
789.0,0.3566692533768995
790.0,0.3567233849048975
791.0,0.35677113581432673
792.0,0.3568106632227302
793.0,0.3568673594757275
794.0,0.35698739840554017
795.0,0.3571339422026972
796.0,0.3570928505529465
797.0,0.3571542699872783
798.0,0.35721138998767576
799.0,0.35713783263425875
800.0,0.3572289721589232
801.0,0.357311316404455
802.0,0.3573521274634518
803.0,0.35739804422100074
804.0,0.3573798373215986
805.0,0.3574270681459654
806.0,0.3575318936681836
807.0,0.35754432853451074
808.0,0.35759026163235424
809.0,0.35768857422111405
810.0,0.35778346808706735
811.0,0.35772013057721175
812.0,0.3576623516033791
813.0,0.3576751165910945
814.0,0.35775408297858724
815.0,0.35775139393441857
816.0,0.3577680633000031
817.0,0.35776090254402243
818.0,0.35768290218530485
819.0,0.3578620908686361
820.0,0.3580520769876149
821.0,0.35810435237659805
822.0,0.35799756665530863
823.0,0.35800942081272424
824.0,0.35806744364361326
825.0,0.35811810579176656
826.0,0.3582096388458365
827.0,0.3582562146049557
828.0,0.35824925758826187
829.0,0.35822238318662336
830.0,0.35826343550099643
831.0,0.3583205317974726
832.0,0.3583784526934941
833.0,0.3584299739931655
834.0,0.3584620581061423
835.0,0.3584708927596662
836.0,0.35845279285625675
837.0,0.3584292904269479
838.0,0.35855904103179076
839.0,0.35862288880159765
840.0,0.3586100319443006
841.0,0.35867273260283034
842.0,0.35867853329900123
843.0,0.35866402827859395
844.0,0.35865567633420736
845.0,0.3586453280843348
846.0,0.3587265066015738
847.0,0.35875176237804857
848.0,0.3586871861912967
849.0,0.3588024792648966
850.0,0.35875189775708066
851.0,0.35863118180811
852.0,0.3586332622737538
853.0,0.35886375612796567
854.0,0.35895772011864513
855.0,0.35892137129372925
856.0,0.3589129831317062
857.0,0.3589536093876815
858.0,0.3589172283901753
859.0,0.35882821267540016
860.0,0.3588022302342306
861.0,0.35895510151370014
862.0,0.3589863280099252
863.0,0.3588741095565046
864.0,0.3588493310526408
865.0,0.3589760510506806
866.0,0.3590880165737175
867.0,0.35909520835450703
868.0,0.35905810464054055
869.0,0.35899852956682227
870.0,0.359001821115136
871.0,0.35905227989778465
872.0,0.35897969574479033
873.0,0.3590628922614481
874.0,0.3592590721269421
875.0,0.35942693151352195
876.0,0.3593990474403416
877.0,0.35935636577514585
878.0,0.3593492673272401
879.0,0.35935812012368795
880.0,0.3592701035146968
881.0,0.35931457465540223
882.0,0.35932501425401847
883.0,0.3591674746324806
884.0,0.35945403820308913
885.0,0.35953952841947273
886.0,0.3594758039396624
887.0,0.3595745181379522
888.0,0.35948471627392486
889.0,0.3595362131521882
890.0,0.3596912307710226
891.0,0.3596945593785209
892.0,0.3596099000011367
893.0,0.35951504283855956
894.0,0.35952174482462196
895.0,0.3596968504243161
896.0,0.3595099730050415
897.0,0.3595302605543878
898.0,0.35989332998280954
899.0,0.3600892330254667
900.0,0.3598269851292519
901.0,0.35961216091967646
902.0,0.3597505080665696
903.0,0.36010860381577653
904.0,0.35998431121135716
905.0,0.3598726738348537
906.0,0.36009383186855776
907.0,0.3604699115254018
908.0,0.36040495263850286
909.0,0.3603235319051106
910.0,0.3604780861355983
911.0,0.3604690705755754
912.0,0.36025052696442106
913.0,0.3599187351575834
914.0,0.35980144067196634
915.0,0.36049405741874535
916.0,0.36066386726148997
917.0,0.36041327519847427
918.0,0.3602132424672531
919.0,0.36045519653917163
920.0,0.36061790124756543
921.0,0.36063813320389426
922.0,0.36060659721849436
923.0,0.3606751428616547
924.0,0.36092378321255986
925.0,0.3609205458543433
926.0,0.36047597104581475
927.0,0.360323761475948
928.0,0.3603962740718976
929.0,0.36023100911359984
930.0,0.359604734948019
931.0,0.35969097391884935
932.0,0.3594256737987872
933.0,0.35881234531081313
934.0,0.35840137492321866
935.0,0.3586893133010824
936.0,0.3592620639917132
937.0,0.35941652798868545
938.0,0.3589142807749533
939.0,0.35831465717322536
940.0,0.35889118905515194
941.0,0.3595249109067158
942.0,0.35944552414070574
943.0,0.36008123370771844
944.0,0.35976631303695505
945.0,0.35900683357731433
946.0,0.3587861153465702
947.0,0.35939472438903847
948.0,0.35918761761567536
949.0,0.3593932845891605
950.0,0.36065289386838106
951.0,0.36100552155516075
952.0,0.3604013951806331
953.0,0.35973199366544506
954.0,0.3596984093896205
955.0,0.36010135855238484
956.0,0.36081376315139563
957.0,0.36109972933940626
958.0,0.3608613942359296
959.0,0.36110169161635014
960.0,0.36099389797002984
961.0,0.3609936954651294
962.0,0.36120024715620064
963.0,0.36098260815890004
964.0,0.3613311469621518
965.0,0.36158098461536115
966.0,0.3616767271980075
967.0,0.3624336266235312
968.0,0.36297094918236456
969.0,0.3626490502362071
970.0,0.36192976249212144
971.0,0.36210185035838377
972.0,0.3622022748805185
973.0,0.3625777888590983
974.0,0.3630121871988519
975.0,0.36277929507253587
976.0,0.36217977054330164
977.0,0.3621720415375943
978.0,0.3625621428117323
979.0,0.3624812045559139
980.0,0.36243533063677263
981.0,0.36294299630247445
982.0,0.3631736658256299
983.0,0.36234485857690535
984.0,0.363046831514571
985.0,0.3632902046908156
986.0,0.36282051040305974
987.0,0.3623390411710385
988.0,0.3626524037857374
989.0,0.3632894977133865
990.0,0.3635740371631974
991.0,0.363112871610247
992.0,0.3623338293644874
993.0,0.3626683095317704
994.0,0.36313091274163933
995.0,0.3627592355580344
996.0,0.36205107794301045
997.0,0.36413705170263605
998.0,0.3655290563932369
999.0,0.36431497024349746
1000.0,0.36271452478796434
1001.0,0.3639569157983293
1002.0,0.3644507972010932
1003.0,0.36458851858302666
1004.0,0.36451262893063546
1005.0,0.36472020646354
1006.0,0.3650486964260226
1007.0,0.3652607996780336
1008.0,0.36565260556667845
1009.0,0.3658549384971553
1010.0,0.3657421541160009
1011.0,0.3656875631047921
1012.0,0.36570390809147935
1013.0,0.3654821430476863
1014.0,0.36559770948089876
1015.0,0.36612676556961926
1016.0,0.36626975979485094
1017.0,0.36651383284795125
1018.0,0.36654222831094485
1019.0,0.3659618886073954
1020.0,0.36580116971381177
1021.0,0.3656814739039772
1022.0,0.36598144514167497
1023.0,0.36604396543781254
1024.0,0.36635448989886477
1025.0,0.3664028202429738
1026.0,0.3661282993043858
1027.0,0.3663518353595079
1028.0,0.3664111821275146
1029.0,0.3662534597326576
1030.0,0.3661501723011094
1031.0,0.36596173587872977
1032.0,0.36546800196724677
1033.0,0.36527444503849393
1034.0,0.3651564446603046
1035.0,0.36516141528766805
1036.0,0.3653026253065932
1037.0,0.36543523622912966
1038.0,0.3655801330240515
1039.0,0.365796184779069
1040.0,0.36590484287172537
1041.0,0.36591036481897554
1042.0,0.3657533167186006
1043.0,0.36543362394698026
1044.0,0.3653204071854083
1045.0,0.36535494070949154
1046.0,0.36543390967221207
1047.0,0.36581633960035637
1048.0,0.36608858837982644
1049.0,0.366252195995116
1050.0,0.3664679966163956
1051.0,0.3667553388947743
1052.0,0.36706394461775455
1053.0,0.3673540273054684
1054.0,0.3672472409183518
1055.0,0.36705995951931614
1056.0,0.3670969184787551
1057.0,0.36696307316079574
1058.0,0.36712088692571415
1059.0,0.3673303567884506
1060.0,0.36772148603897836
1061.0,0.3681104009324646
1062.0,0.36798200221959004
1063.0,0.3679078190988839
1064.0,0.3678262910588143
1065.0,0.3673643286782042
1066.0,0.3670490416110567
1067.0,0.367240562994639
1068.0,0.3671746879599051
1069.0,0.36721526334458715
1070.0,0.3672743191733893
1071.0,0.36731843363067296
1072.0,0.36767837280482163
1073.0,0.3678844850952375
1074.0,0.36786912720041964
1075.0,0.3678339663084855
1076.0,0.3678115015350711
1077.0,0.36790651278727066
1078.0,0.3680350187258147
1079.0,0.3683131177674584
1080.0,0.3684301920069969
1081.0,0.3683554404953652
1082.0,0.3685004346945895
1083.0,0.3687541880388379
1084.0,0.3688706950784992
1085.0,0.3689918997183595
1086.0,0.3690229557533797
1087.0,0.36891038263668513
1088.0,0.3691122513264777
1089.0,0.369438713063712
1090.0,0.36951576279627885
1091.0,0.3696064367458758
1092.0,0.3696129082994466
1093.0,0.3695914191134148
1094.0,0.36948628353729107
1095.0,0.369408773202627
1096.0,0.36918088910103847
1097.0,0.3690203424037345
1098.0,0.3691775930616149
1099.0,0.3695320917574906
1100.0,0.3697197892041285
1101.0,0.36981790510341384
1102.0,0.36969650479889765
1103.0,0.36978819322896855
1104.0,0.3702785966099165
1105.0,0.3704625746894812
1106.0,0.3706246375190696
1107.0,0.37075191865501317
1108.0,0.3706340888518219
1109.0,0.37070536582924674
1110.0,0.3708850444721584
1111.0,0.3709925444612644
1112.0,0.370996847502202
1113.0,0.3710180703867268
1114.0,0.37109137268679304
1115.0,0.370993713754694
1116.0,0.37092656336410745
1117.0,0.37074467831730307
1118.0,0.37064665875142166
1119.0,0.37103757322283554
1120.0,0.3708307076694
1121.0,0.3705265339155726
1122.0,0.37069454801794377
1123.0,0.3706673588583359
1124.0,0.3709110149356736
1125.0,0.37135483903600053
1126.0,0.37155609183193533
1127.0,0.37119304488822996
1128.0,0.37130954124868054
1129.0,0.37160348819720135
