Wavelength (nm),Reflectance
350.0,0.14919252103427497
351.0,0.14951240012948538
352.0,0.1497685083304588
353.0,0.15022913133577798
354.0,0.15062326322818373
355.0,0.15091825192484637
356.0,0.1512529413899111
357.0,0.15187708811102832
358.0,0.15265361637513802
359.0,0.15315981253163863
360.0,0.15336671960606052
361.0,0.15384671414004847
362.0,0.1541407628688263
363.0,0.1547353681910124
364.0,0.15573456496872862
365.0,0.15574099441024525
366.0,0.15616330678391968
367.0,0.15688943650910583
368.0,0.1573914831751243
369.0,0.15792297920090265
370.0,0.15854710165661612
371.0,0.1593049073178043
372.0,0.1601840854064086
373.0,0.16084235756493095
374.0,0.1615223892601162
375.0,0.16226839529982334
376.0,0.16283726066192872
377.0,0.16350979844402863
378.0,0.16441149864815469
379.0,0.16547569411023175
380.0,0.16631550399389936
381.0,0.1673682926657594
382.0,0.16833691965222425
383.0,0.16898962518262797
384.0,0.17029034590912423
385.0,0.17117368292332616
386.0,0.1717430908310867
387.0,0.17261158586073286
388.0,0.17340151211015953
389.0,0.17426583884513536
390.0,0.17512596003910638
391.0,0.17569884494446325
392.0,0.17637215021088576
393.0,0.17713902433308343
394.0,0.17799140671294397
395.0,0.1790350707443934
396.0,0.17968691044787943
397.0,0.18014657377562024
398.0,0.18065140494157608
399.0,0.1809601979050266
400.0,0.18157636599425947
401.0,0.18226737320007974
402.0,0.18263606049717515
403.0,0.18300669887133092
404.0,0.18351473598440762
405.0,0.18412888772719505
406.0,0.18470337874732054
407.0,0.1854340612453382
408.0,0.18610262637187863
409.0,0.18657589311519385
410.0,0.1869520959412613
411.0,0.18742420169340032
412.0,0.18805918718252426
413.0,0.1887939772168298
414.0,0.18930025657415955
415.0,0.18981336066126783
416.0,0.19040301849722494
417.0,0.19103646588681572
418.0,0.19166195596077076
419.0,0.19234678071897265
420.0,0.19307586037775362
421.0,0.19374243563630728
422.0,0.1943977305821755
423.0,0.1950336881004067
424.0,0.19566284272169862
425.0,0.19635855307830968
426.0,0.19710955602887054
427.0,0.1978775994524171
428.0,0.19864193466316057
429.0,0.19955943285119407
430.0,0.20032148859555302
431.0,0.20095594427441796
432.0,0.20173787150747996
433.0,0.2025742809444567
434.0,0.20337520307204038
435.0,0.20411267506965497
436.0,0.20484265496072518
437.0,0.2056900127794249
438.0,0.20651664543325537
439.0,0.2072259045883921
440.0,0.20808754326146625
441.0,0.2088998013180704
442.0,0.20969519560103725
443.0,0.210587959930425
444.0,0.21132681538223866
445.0,0.21210262444801312
446.0,0.2129237880202543
447.0,0.21355920882405077
448.0,0.21430082691699837
449.0,0.21508022691068832
450.0,0.21579403733433813
451.0,0.21644655493872003
452.0,0.21705158134107227
453.0,0.2176721480450164
454.0,0.21834636067820204
455.0,0.2188573301414196
456.0,0.2193513844495873
457.0,0.21988662650723398
458.0,0.22041156752823982
459.0,0.2208768161913344
460.0,0.2213064516560815
461.0,0.22174911919801948
462.0,0.22227695980844328
463.0,0.22276189765986656
464.0,0.22323593668001107
465.0,0.22375956246024858
466.0,0.22423013942555978
467.0,0.22475000266679931
468.0,0.22530172930596964
469.0,0.22578166761135116
470.0,0.2263581376710937
471.0,0.22694710972788915
472.0,0.2274928392483084
473.0,0.22805766310011788
474.0,0.2285840939352877
475.0,0.2291339021289717
476.0,0.22976845746658145
477.0,0.23040086693740128
478.0,0.23100828432725212
479.0,0.2315860104537788
480.0,0.23214627517144928
481.0,0.23272017516513627
482.0,0.23330945112733134
483.0,0.23389504212874057
484.0,0.23441734935006778
485.0,0.2350879519844492
486.0,0.23581159058607937
487.0,0.23645246110596957
488.0,0.23714070919638777
489.0,0.23777872729640795
490.0,0.23840340079079925
491.0,0.23913447218892794
492.0,0.23995141381671645
493.0,0.24075613903904092
494.0,0.24154773843105912
495.0,0.24248749922959242
496.0,0.24336844900502608
497.0,0.2442639316776357
498.0,0.2452696769941852
499.0,0.2462395091404311
500.0,0.2472644851370827
501.0,0.24834816181271144
502.0,0.24943629221720048
503.0,0.250545362033004
504.0,0.2517545511712607
505.0,0.2530393819221937
506.0,0.2542182036691951
507.0,0.2554293238091536
508.0,0.25663847427010655
509.0,0.2578267838214598
510.0,0.25919557066901516
511.0,0.2605469486970559
512.0,0.2618671049553722
513.0,0.263259289838009
514.0,0.26462976107215763
515.0,0.26597994191162294
516.0,0.26734645022002634
517.0,0.26879720916286465
518.0,0.2702786162929771
519.0,0.2716856436559338
520.0,0.2729578438407599
521.0,0.2742621373292759
522.0,0.2756189589175225
523.0,0.27699354167980184
524.0,0.27831647724157543
525.0,0.2796680925222251
526.0,0.2809948876599166
527.0,0.2822945309484155
528.0,0.2836993878528748
529.0,0.2850536503069254
530.0,0.2863287429013952
531.0,0.28758495367078285
532.0,0.28895584763492144
533.0,0.2903224904178495
534.0,0.29167995998375984
535.0,0.29311601899176376
536.0,0.2944987784670418
537.0,0.2958557736590799
538.0,0.29723758448788834
539.0,0.2986425165061313
540.0,0.30011962932520425
541.0,0.301621517576117
542.0,0.30307667369691527
543.0,0.3044523296835905
544.0,0.30584161606406907
545.0,0.30727023507794504
546.0,0.3086881141399332
547.0,0.3101966883692276
548.0,0.3116841818549338
549.0,0.31310314455584615
550.0,0.3146528522756765
551.0,0.31621548670533317
552.0,0.3177939418175711
553.0,0.3194221331658328
554.0,0.3210691578255175
555.0,0.3226833165959466
556.0,0.32428009783987394
557.0,0.3259408593252838
558.0,0.32753950758965766
559.0,0.3291113688329351
560.0,0.3306679470609911
561.0,0.33206989416234345
562.0,0.33346683095630425
563.0,0.33488308833816927
564.0,0.3362806435062044
565.0,0.33764916451295196
566.0,0.33900089240562364
567.0,0.34033905495704264
568.0,0.34165433334665074
569.0,0.34298751865955396
570.0,0.34429243634237555
571.0,0.3455293608571708
572.0,0.3467997283100853
573.0,0.34805015290706354
574.0,0.34921613165699555
575.0,0.35024940134330657
576.0,0.35129603605799586
577.0,0.35236861532889374
578.0,0.3534317184505661
579.0,0.35440870995437934
580.0,0.3553439889407745
581.0,0.35624039191725854
582.0,0.3571202768293361
583.0,0.3581137223107781
584.0,0.35906573589343693
585.0,0.3599303916927251
586.0,0.3607479684748013
587.0,0.36158482266873937
588.0,0.3624160810658411
589.0,0.3632263393398265
590.0,0.36402166511313605
591.0,0.36480159663768247
592.0,0.36547834650878835
593.0,0.3660197113976733
594.0,0.3666227200872974
595.0,0.36721426858929407
596.0,0.3677899647924693
597.0,0.36841177366130856
598.0,0.36896008397565705
599.0,0.3694643122140901
600.0,0.3699677520145956
601.0,0.3704936792328443
602.0,0.3709639890287936
603.0,0.3713385439896346
604.0,0.371625524240353
605.0,0.3719805153876448
606.0,0.37225160831249554
607.0,0.37241219176504503
608.0,0.37258134820467675
609.0,0.37267043779583964
610.0,0.37277876056850784
611.0,0.37295304564943094
612.0,0.3729974209272118
613.0,0.37306970437872744
614.0,0.3731306070760496
615.0,0.3730913697759993
616.0,0.3732088785959409
617.0,0.37332270149008157
618.0,0.3733648981972994
619.0,0.37343070887812846
620.0,0.3735074179012156
621.0,0.3736430911077719
622.0,0.3738477803811813
623.0,0.3739709423056518
624.0,0.37413581799292267
625.0,0.3743291718363342
626.0,0.3744774953969076
627.0,0.3747408887638364
628.0,0.3750465323006882
629.0,0.3753326354493464
630.0,0.375598045684287
631.0,0.37583365670952523
632.0,0.37610040894265956
633.0,0.37643270325803424
634.0,0.3767039102979735
635.0,0.37697146767937073
636.0,0.37727526488949753
637.0,0.37762990347658004
638.0,0.3779601693810016
639.0,0.37830576766999263
640.0,0.3786260595837674
641.0,0.37869115264279235
642.0,0.3788525640070478
643.0,0.3790568458719429
644.0,0.37916919144027283
645.0,0.3793208587434145
646.0,0.37932985993674
647.0,0.37924430551234556
648.0,0.3792818027058196
649.0,0.37914744335834216
650.0,0.3789484317454911
651.0,0.3787649620304738
652.0,0.3784800827944865
653.0,0.3782554594642942
654.0,0.3779182097889385
655.0,0.3772378134345324
656.0,0.37645613762214114
657.0,0.37555325295108843
658.0,0.3745679467659457
659.0,0.37343424703451533
660.0,0.37212487299988284
661.0,0.37074589114633977
662.0,0.36936288916775295
663.0,0.367814484144779
664.0,0.3662741546920454
665.0,0.3647998893140327
666.0,0.36339524558454955
667.0,0.3621067365256959
668.0,0.3608235774602368
669.0,0.359594873144645
670.0,0.35859490724705767
671.0,0.3575305412541552
672.0,0.356555640265935
673.0,0.3557911498630579
674.0,0.3550398894796336
675.0,0.3544700914628659
676.0,0.35401405512295736
677.0,0.35356194522774526
678.0,0.35329604014785887
679.0,0.3532928483036146
680.0,0.35362292584328003
681.0,0.3543482518000271
682.0,0.35537214569859554
683.0,0.35676715168331874
684.0,0.35857730173617214
685.0,0.3607600054715098
686.0,0.36335309460040366
687.0,0.3666773031932075
688.0,0.3704296555597778
689.0,0.37372324618250624
690.0,0.3767961160829365
691.0,0.3798921597104366
692.0,0.38272936682306036
693.0,0.385434723441938
694.0,0.387980666063537
695.0,0.39028105005273245
696.0,0.3923678250044137
697.0,0.3941818377098534
698.0,0.3958145326663624
699.0,0.3973715272319801
700.0,0.3988104769262159
701.0,0.40002127885261163
702.0,0.4010301521707728
703.0,0.4019972102473462
704.0,0.4028151995162456
705.0,0.40357914522935395
706.0,0.40434084557229183
707.0,0.4049609424439255
708.0,0.4054286802092694
709.0,0.40587572851957815
710.0,0.4064288757089042
711.0,0.40685240199616923
712.0,0.4072877846010218
713.0,0.4077392423907484
714.0,0.408075315413905
715.0,0.40847046892760547
716.0,0.4089213835043039
717.0,0.4094099304968939
718.0,0.4099032364557739
719.0,0.41031626804175325
720.0,0.41053529116114074
721.0,0.41056805083714554
722.0,0.41070747720544415
723.0,0.4109391704098693
724.0,0.41124630373490306
725.0,0.41156253308874413
726.0,0.4118211621701112
727.0,0.4119929397415272
728.0,0.4121288869559642
729.0,0.4123872808744588
730.0,0.41267724142286716
731.0,0.4128108205381067
732.0,0.4127201005784357
733.0,0.41282891158138263
734.0,0.41301683997378463
735.0,0.413191796725108
736.0,0.41330233800518046
737.0,0.41353359196866096
738.0,0.4138051989869656
739.0,0.4140284939139013
740.0,0.41414536736825885
741.0,0.4142570771175824
742.0,0.4143675573220755
743.0,0.4144809839236994
744.0,0.41469950068453354
745.0,0.414871479139352
746.0,0.41499313592711407
747.0,0.4151478843870609
748.0,0.4154375811786956
749.0,0.41566455825217724
750.0,0.41576182334544687
751.0,0.4158426694998105
752.0,0.4159778525823653
753.0,0.4161704448504871
754.0,0.41636916453886835
755.0,0.41643331316216686
756.0,0.41652985219682515
757.0,0.4167568408110947
758.0,0.41713850668454483
759.0,0.4174737469309152
760.0,0.4179199799315071
761.0,0.41872151886687836
762.0,0.41940926433779807
763.0,0.41956886417910466
764.0,0.41943913272195116
765.0,0.41916188988558445
766.0,0.41880514631398563
767.0,0.41848785070269845
768.0,0.41831153203267923
769.0,0.41831031365503846
770.0,0.41837163138334504
771.0,0.41843894305367624
772.0,0.41847950709881065
773.0,0.41849602902898514
774.0,0.41861083606599814
775.0,0.41874196835719574
776.0,0.41880566824994603
777.0,0.4187566316750334
778.0,0.41887743943128064
779.0,0.4189729604367541
780.0,0.4189527791733658
781.0,0.41911209493947105
782.0,0.41914329207563805
783.0,0.4191269031963654
784.0,0.41921993006322467
785.0,0.4193854994203992
786.0,0.4195304494654573
787.0,0.4196032453066188
788.0,0.41960558495013156
789.0,0.41969337199450113
790.0,0.4197916416901684
791.0,0.41986498972151104
792.0,0.4199456865976119
793.0,0.41989952762402744
794.0,0.41987976450046677
795.0,0.4199817020991034
796.0,0.4200710863583883
797.0,0.4201049343715759
798.0,0.4201018179588233
799.0,0.4201166865392028
800.0,0.4202408285606651
801.0,0.420337810842382
802.0,0.4203715459636536
803.0,0.42037768563936456
804.0,0.4203868997161013
805.0,0.42041577855746803
806.0,0.4204430693116778
807.0,0.4204237383260715
808.0,0.42051770407935435
809.0,0.4206261232744552
810.0,0.4206754803561632
811.0,0.4207274237361384
812.0,0.42089122747231067
813.0,0.42106793741401355
814.0,0.421138644653705
815.0,0.42116934417325846
816.0,0.42126864408488746
817.0,0.4213605436122345
818.0,0.42131295672779656
819.0,0.4212534015275638
820.0,0.4212591659535696
821.0,0.4213152068744211
822.0,0.4213448250248776
823.0,0.4213100929121823
824.0,0.42131293059692365
825.0,0.42134480171535066
826.0,0.4212525129761191
827.0,0.4211678772904109
828.0,0.4212067587815417
829.0,0.42135819693422255
830.0,0.42133819530996774
831.0,0.42120741814584894
832.0,0.4211663345786027
833.0,0.4213217030916737
834.0,0.42129397058597967
835.0,0.4212521217825149
836.0,0.42122403155348515
837.0,0.42118773347952887
838.0,0.421248446088675
839.0,0.42130635442231756
840.0,0.4213076954413761
841.0,0.42125806346530636
842.0,0.4212356106757355
843.0,0.4212078983216598
844.0,0.4211663176173055
845.0,0.42115091999397253
846.0,0.42125655039948934
847.0,0.4212824736840251
848.0,0.4211753761305064
849.0,0.4212650134295435
850.0,0.4213436613011999
851.0,0.4213773842376949
852.0,0.4213918366446804
853.0,0.42144834600794384
854.0,0.42136718497192427
855.0,0.4212774214269278
856.0,0.42135988639085226
857.0,0.4214593130579025
858.0,0.4215140105668016
859.0,0.4215586110293394
860.0,0.4216320338659704
861.0,0.42144712059336203
862.0,0.42139579809583594
863.0,0.4214612100693441
864.0,0.4213182642226242
865.0,0.42148317054463535
866.0,0.421634887596128
867.0,0.4215997550832546
868.0,0.421534988057725
869.0,0.4214571795108342
870.0,0.42144870933991846
871.0,0.4215536687715154
872.0,0.4217480199068306
873.0,0.4218359761025837
874.0,0.42186033990181754
875.0,0.42186811340436736
876.0,0.4217663769197343
877.0,0.42184485416570183
878.0,0.4219451733573627
879.0,0.42189532421833686
880.0,0.42189576395954814
881.0,0.4220033475674065
882.0,0.42215546829895567
883.0,0.4222487527624911
884.0,0.42223124491175335
885.0,0.4223643863903385
886.0,0.4225556406168576
887.0,0.4225917328448195
888.0,0.42264401233819393
889.0,0.4226790135340005
890.0,0.42266945924194826
891.0,0.4226311463747455
892.0,0.42277327395973285
893.0,0.42303223540669765
894.0,0.42323845415869554
895.0,0.4232105953482828
896.0,0.42331749003343283
897.0,0.4234082564818074
898.0,0.42346145196960533
899.0,0.4236441358657751
900.0,0.42386576774395923
901.0,0.4238877930899134
902.0,0.42368251907696863
903.0,0.4234921977906228
904.0,0.42383959564824536
905.0,0.4241972848865984
906.0,0.4242859717619031
907.0,0.4243543458018625
908.0,0.4242834962295705
909.0,0.42424075178955506
910.0,0.42436294076594944
911.0,0.4246217100384605
912.0,0.42466028329714506
913.0,0.4245053026237632
914.0,0.4243207814467041
915.0,0.4243233838519627
916.0,0.4246062108525888
917.0,0.4246883990556638
918.0,0.4245225536540263
919.0,0.425044198750181
920.0,0.4250158558149331
921.0,0.4248306909448985
922.0,0.4249023796071055
923.0,0.4248542227009308
924.0,0.4250306763526614
925.0,0.4253343785764122
926.0,0.42555852194292443
927.0,0.42556100558321874
928.0,0.4249955344941888
929.0,0.4244499860989967
930.0,0.42447218864978864
931.0,0.42427279668480083
932.0,0.423733059444353
933.0,0.42311758859452814
934.0,0.42285496766846153
935.0,0.42301942983807034
936.0,0.423167455012124
937.0,0.42313165565634103
938.0,0.4230742871879232
939.0,0.42347213890404517
940.0,0.42465184505641407
941.0,0.4256365298111716
942.0,0.42566219916887743
943.0,0.4251642948653857
944.0,0.42463382632321095
945.0,0.4242569883924523
946.0,0.4241626360442364
947.0,0.4245975166516968
948.0,0.42558213857915106
949.0,0.42575300272474603
950.0,0.4250360213982079
951.0,0.4263756132499459
952.0,0.4264098980761942
953.0,0.4256278575763761
954.0,0.4252909419807727
955.0,0.4260977578584107
956.0,0.42566535161841995
957.0,0.42543482344524597
958.0,0.4264954270292749
959.0,0.4279068772054457
960.0,0.4282833824422174
961.0,0.42751232168279235
962.0,0.4266133357265037
963.0,0.42734243018618706
964.0,0.4275296966156899
965.0,0.42803390508889955
966.0,0.4289484424255446
967.0,0.4290420127321042
968.0,0.42869272073579023
969.0,0.428697391974166
970.0,0.4291762698473352
971.0,0.4294555888090889
972.0,0.42862275971609715
973.0,0.4282872519227168
974.0,0.4287543072240105
975.0,0.42888173980785177
976.0,0.4285565514663685
977.0,0.4283215119419382
978.0,0.4286313698795801
979.0,0.4294845407516722
980.0,0.429519369365888
981.0,0.4290488661660436
982.0,0.4287730343768864
983.0,0.4291633259095174
984.0,0.42917913370454314
985.0,0.429770502361464
986.0,0.42994148071356525
987.0,0.4288614486179925
988.0,0.42908273798970276
989.0,0.4298600642726962
990.0,0.43041596472691834
991.0,0.4303472236084531
992.0,0.4302836936383754
993.0,0.4296399251975418
994.0,0.4297140438376064
995.0,0.4308570923038724
996.0,0.4310009317915182
997.0,0.4302738152244391
998.0,0.4299238539998801
999.0,0.43033628591775175
1000.0,0.4304971898830583
1001.0,0.43488405764458793
1002.0,0.43524393250809634
1003.0,0.43554268981633254
1004.0,0.43655710789971514
1005.0,0.43661834237743025
1006.0,0.43572339976770963
1007.0,0.4354821323426693
1008.0,0.4351828520070403
1009.0,0.43498013955450765
1010.0,0.43528238612011017
1011.0,0.4357716653782305
1012.0,0.43593600207724464
1013.0,0.4360192317087903
1014.0,0.43622029059784867
1015.0,0.43640652575386224
1016.0,0.4365631647275241
1017.0,0.4366503381762799
1018.0,0.43694168388185306
1019.0,0.4374700793468315
1020.0,0.4376122776284461
1021.0,0.4376408103943143
1022.0,0.4378947028804962
1023.0,0.437675504349323
1024.0,0.43749473120791904
1025.0,0.4374504074239317
1026.0,0.4374460300880567
1027.0,0.43771046161928057
1028.0,0.437663556022783
1029.0,0.4374727168679265
1030.0,0.4373557889409262
1031.0,0.43744721966651245
1032.0,0.4375754269184819
1033.0,0.4378151310014295
1034.0,0.43841801003300374
1035.0,0.4387336550407575
1036.0,0.43902071074370425
1037.0,0.4388996960273755
1038.0,0.4388581016291434
1039.0,0.4392917213197486
1040.0,0.4393637263894676
1041.0,0.43924371595288064
1042.0,0.4392793336358316
1043.0,0.43901828791035846
1044.0,0.4389682793855731
1045.0,0.4389569404755771
1046.0,0.43894226656380164
1047.0,0.4390514966625394
1048.0,0.4390951920516198
1049.0,0.4389145581515907
1050.0,0.43908325530665754
1051.0,0.43948235878729774
1052.0,0.4396560629158395
1053.0,0.4399177679052557
1054.0,0.4401757268213766
1055.0,0.44039021950726404
1056.0,0.4404647010445173
1057.0,0.44009905464544175
1058.0,0.4401014895053193
1059.0,0.44022368858595645
1060.0,0.4400663446821207
1061.0,0.44025122836965924
1062.0,0.4402774128007138
1063.0,0.44043531885290316
1064.0,0.44055529179070524
1065.0,0.4407435216108992
1066.0,0.4408240678908993
1067.0,0.44110774376513173
1068.0,0.4410692469325437
1069.0,0.4410788048361405
1070.0,0.4414609821685609
1071.0,0.44178654372633674
1072.0,0.44186431015511346
1073.0,0.4417761921827443
1074.0,0.44164687720672974
1075.0,0.44136457583162264
1076.0,0.4414830314632219
1077.0,0.4418916495988614
1078.0,0.4420253852034236
1079.0,0.44207467342543016
1080.0,0.44221921196716324
1081.0,0.4421223264165298
1082.0,0.4419727037879425
1083.0,0.44208610293427575
1084.0,0.4423028697507212
1085.0,0.4426970834912291
1086.0,0.4431557544045112
1087.0,0.4435695651630107
1088.0,0.4438167273652528
1089.0,0.4439508528316575
1090.0,0.44398817158096443
1091.0,0.4439384428055177
1092.0,0.44392521020428927
1093.0,0.44414549937116193
1094.0,0.4442964821837127
1095.0,0.44444726954441127
1096.0,0.44456339549839224
1097.0,0.44472544953732934
1098.0,0.4446446181413194
1099.0,0.4446946938129002
1100.0,0.44477793293792767
1101.0,0.444844758360709
1102.0,0.44485632204797615
1103.0,0.44464927633830964
1104.0,0.44480651994695963
1105.0,0.44500223045850473
1106.0,0.44499923156909665
1107.0,0.4450934701805073
1108.0,0.44499288859940095
1109.0,0.44482568967757996
1110.0,0.4447297887848881
1111.0,0.4447505552180413
1112.0,0.4449812800641018
1113.0,0.4452316833323833
1114.0,0.4451402990291316
1115.0,0.445198101597791
1116.0,0.4455962116320221
1117.0,0.44594124931809387
1118.0,0.4461800650818153
1119.0,0.4464912717385253
1120.0,0.44653616999464474
1121.0,0.44626943471872177
1122.0,0.44630468572770027
1123.0,0.4460770234174399
1124.0,0.445997383725929
1125.0,0.44587622216267114
1126.0,0.44608251650357106
1127.0,0.4470924026651112
1128.0,0.44767527084139513
